,Date,Avg
1,01/10/2019,98.3
2,01/09/2019,97.81
3,01/08/2019,95.225
4,01/07/2019,94.315
5,01/04/2019,92.68915
6,01/03/2019,89.74000000000001
7,01/02/2019,88.23
8,12/31/2018,87.635
9,12/28/2018,87.74000000000001
10,12/27/2018,86.92
11,12/26/2018,85.535
12,12/24/2018,84.755
13,12/21/2018,88.655
14,12/20/2018,91.185
15,12/19/2018,94.72
16,12/18/2018,95.335
17,12/17/2018,97.865
18,12/14/2018,101.005
19,12/13/2018,102.88
20,12/12/2018,105.215
21,12/11/2018,103.02
22,12/10/2018,101.235
23,12/07/2018,105.525
24,12/06/2018,100.92500000000001
25,12/04/2018,106.215
26,12/03/2018,107.27
27,11/30/2018,103.785
28,11/29/2018,105.09
29,11/28/2018,102.8175
30,11/27/2018,101.91
31,11/26/2018,101.88
32,11/23/2018,100.79249999999999
33,11/21/2018,105.4
34,11/20/2018,102.67
35,11/19/2018,104.87
36,11/16/2018,104.14500000000001
37,11/15/2018,99.38499999999999
38,11/14/2018,99.16999999999999
39,11/13/2018,100.2425
40,11/12/2018,103.99000000000001
41,11/09/2018,104.36
42,11/08/2018,106.83500000000001
43,11/07/2018,108.78
44,11/06/2018,106.48750000000001
45,11/05/2018,105.575
46,11/02/2018,103.66499999999999
47,11/01/2018,105.57499999999999
48,10/31/2018,106.895
49,10/30/2018,103.595
50,10/29/2018,103.815
51,10/26/2018,105.43
52,10/25/2018,107.61
53,10/24/2018,108.975
54,10/23/2018,111.955
55,10/22/2018,116.86995
56,10/19/2018,118.86500000000001
57,10/18/2018,118.4
58,10/17/2018,120.53999999999999
59,10/16/2018,122.77000000000001
60,10/15/2018,122.755
61,10/12/2018,122.0824
62,10/11/2018,123.15
63,10/10/2018,129.175
64,10/09/2018,131.8139
65,10/08/2018,130.2826
66,10/05/2018,130.35
67,10/04/2018,129.815
68,10/03/2018,129.89499999999998
69,10/02/2018,129.4
70,10/01/2018,128.79500000000002
71,09/28/2018,127.82
72,09/27/2018,126.685
73,09/26/2018,125.695
74,09/25/2018,125.38
75,09/24/2018,122.68
76,09/21/2018,119.325
77,09/20/2018,119.88
78,09/19/2018,119.85
79,09/18/2018,119.38
80,09/17/2018,117.91
81,09/14/2018,117.55
82,09/13/2018,116.08
83,09/12/2018,117.985
84,09/11/2018,115.625
85,09/10/2018,114.86
86,09/07/2018,114.50999999999999
87,09/06/2018,116.66999999999999
88,09/05/2018,117.24000000000001
89,09/04/2018,118.05
90,08/31/2018,118.23750000000001
91,08/30/2018,118.805
92,08/29/2018,118.775
93,08/28/2018,118.7475
94,08/27/2018,118.12
95,08/24/2018,118.16999999999999
96,08/23/2018,116.27
97,08/22/2018,117.08
98,08/21/2018,115.9545
99,08/20/2018,115.185
100,08/17/2018,115.4
101,08/16/2018,116.37
102,08/15/2018,118.22
103,08/14/2018,122.80414999999999
104,08/13/2018,122.3175
105,08/10/2018,122.13
106,08/09/2018,122.89
107,08/08/2018,122.94
108,08/07/2018,125.30000000000001
109,08/06/2018,123.55
110,08/03/2018,122.9225
111,08/02/2018,124.91
112,08/01/2018,126.73500000000001
113,07/31/2018,129.86
114,07/30/2018,130.565
115,07/27/2018,129.12550000000002
116,07/26/2018,129.05305
117,07/25/2018,126.99499999999999
118,07/24/2018,125.05000000000001
119,07/23/2018,122.875
120,07/20/2018,122.375
121,07/19/2018,122.88499999999999
122,07/18/2018,122.68549999999999
123,07/17/2018,123.55
124,07/16/2018,124.17
125,07/13/2018,125.5675
126,07/12/2018,124.38515000000001
127,07/11/2018,125.225
128,07/10/2018,127.00999999999999
129,07/09/2018,125.4825
130,07/06/2018,123.48
131,07/05/2018,123.875
132,07/03/2018,123.70500000000001
133,07/02/2018,122.485
134,06/29/2018,124.805
135,06/28/2018,124.005
136,06/27/2018,122.795
137,06/26/2018,118.75
138,06/25/2018,117.43
139,06/22/2018,119.57249999999999
140,06/21/2018,117.2
141,06/20/2018,118.61
142,06/19/2018,115.935
143,06/18/2018,115.935
144,06/15/2018,115.515
145,06/14/2018,118.44999999999999
146,06/13/2018,118.75
147,06/12/2018,118.21000000000001
148,06/11/2018,117.595
149,06/08/2018,117.685
150,06/07/2018,117.945
151,06/06/2018,116.13499999999999
152,06/05/2018,116.52
153,06/04/2018,119.42
154,06/01/2018,117.825
155,05/31/2018,118.975
156,05/30/2018,118.69
157,05/29/2018,116.39
158,05/25/2018,116.6237
159,05/24/2018,120.685
160,05/23/2018,122.95
161,05/22/2018,125.52
162,05/21/2018,127.015
163,05/18/2018,125.3775
164,05/17/2018,124.225
165,05/16/2018,120.725
166,05/15/2018,119.38
167,05/14/2018,118.84495000000001
168,05/11/2018,118.505
169,05/10/2018,118.955
170,05/09/2018,117.355
171,05/08/2018,113.89
172,05/07/2018,115.16
173,05/04/2018,113.73
174,05/03/2018,115.115
175,05/02/2018,117.355
176,05/01/2018,117.065
177,04/30/2018,118.0205
178,04/27/2018,116.97
179,04/26/2018,116.83494999999999
180,04/25/2018,114.455
181,04/24/2018,114.898
182,04/23/2018,113.88499999999999
183,04/20/2018,113.615
184,04/19/2018,113.5925
185,04/18/2018,112.89
186,04/17/2018,111.11
187,04/16/2018,111.195
188,04/13/2018,110.4325
189,04/12/2018,109.525
190,04/11/2018,108.54050000000001
191,04/10/2018,107.03999999999999
192,04/09/2018,103.57249999999999
193,04/06/2018,101.435
194,04/05/2018,104.58
195,04/04/2018,103.80250000000001
196,04/03/2018,103.54750000000001
197,04/02/2018,102.69
198,03/29/2018,105.015
199,03/28/2018,105.23
200,03/27/2018,106.69999999999999
201,03/26/2018,106.685
202,03/23/2018,105.715
203,03/22/2018,104.12
204,03/21/2018,103.735
205,03/20/2018,100.455
206,03/19/2018,98.92
207,03/16/2018,99.705
208,03/15/2018,99.45
209,03/14/2018,100.26945
210,03/13/2018,100.725
211,03/12/2018,101.655
212,03/09/2018,102.09
213,03/08/2018,100.6275
214,03/07/2018,100.215
215,03/06/2018,101.84
216,03/05/2018,101.58000000000001
217,03/02/2018,100.805
218,03/01/2018,100.975
219,02/28/2018,103.855
220,02/27/2018,108.13499999999999
221,02/26/2018,109.365
222,02/23/2018,108.10499999999999
223,02/22/2018,107.52505
224,02/21/2018,107.25999999999999
225,02/20/2018,107.59
226,02/16/2018,107.66999999999999
227,02/15/2018,106.535
228,02/14/2018,104.28
229,02/13/2018,102.425
230,02/12/2018,102.68
231,02/09/2018,99.56995
232,02/08/2018,103.74000000000001
233,02/07/2018,107.735
234,02/06/2018,108.495
235,02/05/2018,111.44
236,02/02/2018,113.8
237,02/01/2018,115.57499999999999
238,01/31/2018,115.08000000000001
239,01/30/2018,114.94
240,01/29/2018,117.275
241,01/26/2018,117.43
242,01/25/2018,118.015
243,01/24/2018,118.05000000000001
244,01/23/2018,117.74
245,01/22/2018,115.63499999999999
246,01/19/2018,114.11500000000001
247,01/18/2018,113.99
248,01/17/2018,113.245
249,01/16/2018,114.75999999999999
250,01/12/2018,115.63
251,01/11/2018,114.09
252,01/10/2018,112.805
253,01/09/2018,112.32
254,01/08/2018,112.435
255,01/05/2018,111.21000000000001
256,01/04/2018,110.4805
257,01/03/2018,110.82499999999999
258,01/02/2018,108.805
259,12/29/2017,108.495
260,12/28/2017,108.245
261,12/27/2017,108.51050000000001
262,12/26/2017,108.33
263,12/22/2017,106.88
264,12/21/2017,104.995
265,12/20/2017,102.51499999999999
266,12/19/2017,100.74000000000001
267,12/18/2017,99.42500000000001
268,12/15/2017,99.555
269,12/14/2017,100.19
270,12/13/2017,100.215
271,12/12/2017,100.43
272,12/11/2017,101.3675
273,12/08/2017,100.245
274,12/07/2017,99.17
275,12/06/2017,99.4705
276,12/05/2017,101.145
277,12/04/2017,102.00999999999999
278,12/01/2017,103.03999999999999
279,11/30/2017,101.86500000000001
280,11/29/2017,99.89
281,11/28/2017,99.64500000000001
282,11/27/2017,100.5025
283,11/24/2017,101.965
284,11/22/2017,102.18
285,11/21/2017,101.97745
286,11/20/2017,101.35
287,11/17/2017,101.66
288,11/16/2017,101.485
289,11/15/2017,101.20490000000001
290,11/14/2017,103.21000000000001
291,11/13/2017,104.37
292,11/10/2017,104.16499999999999
293,11/09/2017,104.5
294,11/08/2017,104.795
295,11/07/2017,106.7515
296,11/06/2017,106.125
297,11/03/2017,104.19
298,11/02/2017,102.18
299,11/01/2017,99.59
300,10/31/2017,99.735
301,10/30/2017,98.985
302,10/27/2017,97.2
303,10/26/2017,96.465
304,10/25/2017,96.27000000000001
305,10/24/2017,97.1
306,10/23/2017,97.08
307,10/20/2017,96.23
308,10/19/2017,96.025
309,10/18/2017,97.51499999999999
310,10/17/2017,97.16499999999999
311,10/16/2017,97.11125
312,10/13/2017,96.9625
313,10/12/2017,96.305
314,10/11/2017,96.58000000000001
315,10/10/2017,97.265
316,10/09/2017,96.565
317,10/06/2017,95.9
318,10/05/2017,96.61
319,10/04/2017,96.47875
320,10/03/2017,97.095
321,10/02/2017,96.025
322,09/29/2017,96.75
323,09/28/2017,97.59
324,09/27/2017,96.89500000000001
325,09/26/2017,96.485
326,09/25/2017,95.77
327,09/22/2017,94.05000000000001
328,09/21/2017,93.78999999999999
329,09/20/2017,93.55
330,09/19/2017,93.175
331,09/18/2017,92.88
332,09/15/2017,92.575
333,09/14/2017,92.05930000000001
334,09/13/2017,90.09
335,09/12/2017,88.09
336,09/11/2017,87.235
337,09/08/2017,87.07499999999999
338,09/07/2017,88.07050000000001
339,09/06/2017,87.2125
340,09/05/2017,85.97
341,09/01/2017,85.2225
342,08/31/2017,84.39500000000001
343,08/30/2017,83.15
344,08/29/2017,82.615
345,08/28/2017,83.33500000000001
346,08/25/2017,84.84
347,08/24/2017,84.735
348,08/23/2017,84.84
349,08/22/2017,84.19
350,08/21/2017,83.865
351,08/18/2017,83.915
352,08/17/2017,84.2
353,08/16/2017,86.035
354,08/15/2017,87.08
355,08/14/2017,88.385
356,08/11/2017,88.7425
357,08/10/2017,89.925
358,08/09/2017,91.31
359,08/08/2017,91.03
360,08/07/2017,89.53999999999999
361,08/04/2017,89.9
362,08/03/2017,90.13
363,08/02/2017,91.565
364,08/01/2017,94.815
365,07/31/2017,95.33500000000001
366,07/28/2017,95.965
367,07/27/2017,95.145
368,07/26/2017,95.375
369,07/25/2017,95.0445
370,07/24/2017,93.79
371,07/21/2017,93.09
372,07/20/2017,94.655
373,07/19/2017,93.055
374,07/18/2017,91.85
375,07/17/2017,91.72
376,07/14/2017,91.975
377,07/13/2017,91.14500000000001
378,07/12/2017,91.35499999999999
379,07/11/2017,89.955
380,07/10/2017,88.89
381,07/07/2017,87.82
382,07/06/2017,89.6225
383,07/05/2017,91.07499999999999
384,07/03/2017,91.84
385,06/30/2017,90.235
386,06/29/2017,90.10499999999999
387,06/28/2017,88.51665
388,06/27/2017,88.255
389,06/26/2017,87.505
390,06/23/2017,87.72
391,06/22/2017,87.83
392,06/21/2017,87.9
393,06/20/2017,87.08500000000001
394,06/19/2017,88.485
395,06/16/2017,87.83
396,06/15/2017,87.86
397,06/14/2017,88.945
398,06/13/2017,90.105
399,06/12/2017,90.745
400,06/09/2017,89.42500000000001
401,06/08/2017,88.21000000000001
402,06/07/2017,89.175
403,06/06/2017,89.91499999999999
404,06/05/2017,89.07499999999999
405,06/02/2017,89.76140000000001
406,06/01/2017,90.555
407,05/31/2017,89.485
408,05/30/2017,90.11000000000001
409,05/26/2017,90.765
410,05/25/2017,92.03
411,05/24/2017,92.85
412,05/23/2017,92.63499999999999
413,05/22/2017,93.77250000000001
414,05/19/2017,93.22999999999999
415,05/18/2017,92.34
416,05/17/2017,93.565
417,05/16/2017,94.28999999999999
418,05/15/2017,95.385
419,05/12/2017,94.405
420,05/11/2017,94.45115000000001
421,05/10/2017,94.16999999999999
422,05/09/2017,91.52
423,05/08/2017,91.155
424,05/05/2017,89.965
425,05/04/2017,89.72
426,05/03/2017,91.92
427,05/02/2017,91.745
428,05/01/2017,92.22999999999999
429,04/28/2017,93.205
430,04/27/2017,92.43
431,04/26/2017,95.35
432,04/25/2017,94.4512
433,04/24/2017,93.88999999999999
434,04/21/2017,93.5678
435,04/20/2017,93.645
436,04/19/2017,94.1725
437,04/18/2017,95.13499999999999
438,04/17/2017,95.66499999999999
439,04/13/2017,96.525
440,04/12/2017,98.03
441,04/11/2017,97.75999999999999
442,04/10/2017,98.7425
443,04/07/2017,97.76
444,04/06/2017,98.18485000000001
445,04/05/2017,98.875
446,04/04/2017,97.16
447,04/03/2017,96.89500000000001
448,03/31/2017,97.58
449,03/30/2017,98.6625
450,03/29/2017,96.065
451,03/28/2017,94.545
452,03/27/2017,93.50999999999999
453,03/24/2017,94.805
454,03/23/2017,94.67750000000001
455,03/22/2017,94.63
456,03/21/2017,95.42600000000002
457,03/20/2017,95.875
458,03/17/2017,96.31
459,03/16/2017,96.495
460,03/15/2017,96.03399999999999
461,03/14/2017,93.94999999999999
462,03/13/2017,94.4325
463,03/10/2017,95.255
464,03/09/2017,94.53999999999999
465,03/08/2017,96.925
466,03/07/2017,99.97
467,03/06/2017,99.09
468,03/03/2017,98.71195
469,03/02/2017,98.9725
470,03/01/2017,99.215
471,02/28/2017,97.42
472,02/27/2017,97.265
473,02/24/2017,96.575
474,02/23/2017,97.87
475,02/22/2017,98.33
476,02/21/2017,100.14
477,02/17/2017,99.225
478,02/16/2017,100.66
479,02/15/2017,100.91
480,02/14/2017,100.25
481,02/13/2017,100.75999999999999
482,02/10/2017,101.29995
483,02/09/2017,99.37
484,02/08/2017,96.88499999999999
485,02/07/2017,97.38499999999999
486,02/06/2017,100.24000000000001
487,02/03/2017,100.695
488,02/02/2017,100.21000000000001
489,02/01/2017,101.34
490,01/31/2017,100.86
491,01/30/2017,101.16499999999999
492,01/27/2017,103.4675
493,01/26/2017,104.58000000000001
494,01/25/2017,103.815
495,01/24/2017,103.765
496,01/23/2017,104.22
497,01/20/2017,106.045
498,01/19/2017,105.3325
499,01/18/2017,105.22
500,01/17/2017,106.105
501,01/13/2017,105.1725
502,01/12/2017,105.67500000000001
503,01/11/2017,103.885
504,01/10/2017,103.635
505,01/09/2017,103.69999999999999
506,01/06/2017,104.71029999999999
507,01/05/2017,104.13499999999999
508,01/04/2017,103.72
509,01/03/2017,103.22999999999999
510,12/30/2016,101.45500000000001
511,12/29/2016,101.245
512,12/28/2016,102.09
513,12/27/2016,102.72
514,12/23/2016,102.3297
515,12/22/2016,102.6
516,12/21/2016,103.095
517,12/20/2016,103.525
518,12/19/2016,103.765
519,12/16/2016,103.69
520,12/15/2016,103.795
521,12/14/2016,105.775
522,12/13/2016,107.465
523,12/12/2016,107.2821
524,12/09/2016,106.16999999999999
525,12/08/2016,103.80695
526,12/07/2016,103.83
527,12/06/2016,103.93
528,12/05/2016,105.565
529,12/02/2016,104.43
530,12/01/2016,105.66
531,11/30/2016,100.08
532,11/29/2016,91.69
533,11/28/2016,95.055
534,11/25/2016,95.9975
535,11/23/2016,96.17
536,11/22/2016,94.81
537,11/21/2016,95.93
538,11/18/2016,93.32835
539,11/17/2016,94.3075
540,11/16/2016,95.03495000000001
541,11/15/2016,94.02
542,11/14/2016,91.445
543,11/11/2016,91.33000000000001
544,11/10/2016,92.88
545,11/09/2016,93.5925
546,11/08/2016,93.33505
547,11/07/2016,92.905
548,11/04/2016,93.755
549,11/03/2016,91.735
550,11/02/2016,90.36500000000001
551,11/01/2016,91.0615
552,10/31/2016,90.70500000000001
553,10/28/2016,92.385
554,10/27/2016,92.095
555,10/26/2016,91.74
556,10/25/2016,93.38
557,10/24/2016,93.475
558,10/21/2016,94.33
559,10/20/2016,94.63499999999999
560,10/19/2016,95.09
561,10/18/2016,94.05
562,10/17/2016,94.0007
563,10/14/2016,95.09
564,10/13/2016,94.96000000000001
565,10/12/2016,95.95500000000001
566,10/11/2016,96.39495
567,10/10/2016,97.615
568,10/07/2016,96.69
569,10/06/2016,97.225
570,10/05/2016,97.205
571,10/04/2016,95.4371
572,10/03/2016,95.88499999999999
573,09/30/2016,95.945
574,09/29/2016,94.53999999999999
575,09/28/2016,91.57499999999999
576,09/27/2016,88.0875
577,09/26/2016,89.82
578,09/23/2016,90.88135
579,09/22/2016,93.715
580,09/21/2016,92.445
581,09/20/2016,90.94505
582,09/19/2016,90.945
583,09/16/2016,90.365
584,09/15/2016,90.44
585,09/14/2016,89.495
586,09/13/2016,90.83
587,09/12/2016,92.44
588,09/09/2016,93.745
589,09/08/2016,95.045
590,09/07/2016,94.6
591,09/06/2016,92.63
592,09/02/2016,89.0925
593,09/01/2016,88.03999999999999
594,08/31/2016,88.96000000000001
595,08/30/2016,90.66499999999999
596,08/29/2016,90.47
597,08/26/2016,90.7145
598,08/25/2016,90.425
599,08/24/2016,90.98
600,08/23/2016,91.28
601,08/22/2016,91.055
602,08/19/2016,91.2975
603,08/18/2016,91.195
604,08/17/2016,89.97999999999999
605,08/16/2016,89.82
606,08/15/2016,91.255
607,08/12/2016,90.71000000000001
608,08/11/2016,90.11500000000001
609,08/10/2016,90.035
610,08/09/2016,90.64500000000001
611,08/08/2016,91.235
612,08/05/2016,88.75999999999999
613,08/04/2016,82.94999999999999
614,08/03/2016,81.045
615,08/02/2016,79.44
616,08/01/2016,79.695
617,07/29/2016,80.375
618,07/28/2016,79.97999999999999
619,07/27/2016,80.7975
620,07/26/2016,79.245
621,07/25/2016,79.375
622,07/22/2016,81.195
623,07/21/2016,82.33
624,07/20/2016,81.89
625,07/19/2016,82.505
626,07/18/2016,83.525
627,07/15/2016,84.27000000000001
628,07/14/2016,84.405
629,07/13/2016,83.845
630,07/12/2016,85.05
631,07/11/2016,83.245
632,07/08/2016,82.3219
633,07/07/2016,82.49000000000001
634,07/06/2016,82.485
635,07/05/2016,82.85
636,07/01/2016,84.55000000000001
637,06/30/2016,83.29990000000001
638,06/29/2016,83.21000000000001
639,06/28/2016,80.81
640,06/27/2016,79.455
641,06/24/2016,81.845
642,06/23/2016,84.47
643,06/22/2016,84.26
644,06/21/2016,84.025
645,06/20/2016,82.6
646,06/17/2016,80.945
647,06/16/2016,80.3375
648,06/15/2016,82.52000000000001
649,06/14/2016,82.06
650,06/13/2016,81.80425
651,06/10/2016,82.83500000000001
652,06/09/2016,84.72
653,06/08/2016,86.005
654,06/07/2016,83.77
655,06/06/2016,80.695
656,06/03/2016,79.955
657,06/02/2016,79.89
658,06/01/2016,80.6525
659,05/31/2016,81.78
660,05/27/2016,81.515
661,05/26/2016,83.07499999999999
662,05/25/2016,82.83500000000001
663,05/24/2016,81.86500000000001
664,05/23/2016,80.80000000000001
665,05/20/2016,80.42500000000001
666,05/19/2016,78.925
667,05/18/2016,81.015
668,05/17/2016,81.435
669,05/16/2016,80.525
670,05/13/2016,79.785
671,05/12/2016,80.69999999999999
672,05/11/2016,79.7144
673,05/10/2016,79.2824
674,05/09/2016,77.9325
675,05/06/2016,79.86250000000001
676,05/05/2016,81.44995
677,05/04/2016,80.405
678,05/03/2016,81.14
679,05/02/2016,81.87
680,04/29/2016,82.13499999999999
681,04/28/2016,83.175
682,04/27/2016,84.23500000000001
683,04/26/2016,81.41755
684,04/25/2016,79.78
685,04/22/2016,80.6375
686,04/21/2016,79.5
687,04/20/2016,78.35
688,04/19/2016,78.94
689,04/18/2016,75.625
690,04/15/2016,76.245
691,04/14/2016,77.815
692,04/13/2016,77.25
693,04/12/2016,75.685
694,04/11/2016,74.24000000000001
695,04/08/2016,72.97
696,04/07/2016,71.235
697,04/06/2016,70.735
698,04/05/2016,70.50999999999999
699,04/04/2016,71.37
700,04/01/2016,71.44005
701,03/31/2016,73.39500000000001
702,03/30/2016,75.045
703,03/29/2016,74.39
704,03/28/2016,74.13995
705,03/24/2016,73.61525
706,03/23/2016,75.19
707,03/22/2016,76.315
708,03/21/2016,75.455
709,03/18/2016,76.16499999999999
710,03/17/2016,76.315
711,03/16/2016,73.97749999999999
712,03/15/2016,73.135
713,03/14/2016,74.37
714,03/11/2016,74.44
715,03/10/2016,71.58250000000001
716,03/09/2016,71.155
717,03/08/2016,72.66
718,03/07/2016,72.875
719,03/04/2016,70.13
720,03/03/2016,67.92500000000001
721,03/02/2016,65.63
722,03/01/2016,63.9979
723,02/29/2016,66.14
724,02/26/2016,67.72
725,02/25/2016,68.735
726,02/24/2016,68.345
727,02/23/2016,69.7
728,02/22/2016,71.695
729,02/19/2016,68.89500000000001
730,02/18/2016,70.285
731,02/17/2016,69.27
732,02/16/2016,67.67
733,02/12/2016,67.37
734,02/11/2016,64.525
735,02/10/2016,65.345
736,02/09/2016,66.155
737,02/08/2016,66.775
738,02/05/2016,66.65
739,02/04/2016,69.765
740,02/03/2016,68.2955
741,02/02/2016,67.685
742,02/01/2016,68.845
743,01/29/2016,70.1
744,01/28/2016,68.2176
745,01/27/2016,66.21000000000001
746,01/26/2016,64.21
747,01/25/2016,63.83
748,01/22/2016,66.08
749,01/21/2016,61.83
750,01/20/2016,59.015
751,01/19/2016,61.555
752,01/15/2016,62.515
753,01/14/2016,65.11
754,01/13/2016,63.6225
755,01/12/2016,63.26485
756,01/11/2016,64.4875
757,01/08/2016,65.6
758,01/07/2016,67.1
759,01/06/2016,67.6
760,01/05/2016,69.555
761,01/04/2016,69.916
762,12/31/2015,70.795
763,12/30/2015,70.41499999999999
764,12/29/2015,71.44
765,12/28/2015,71.0925
766,12/24/2015,73.315
767,12/23/2015,72.275
768,12/22/2015,70.58
769,12/21/2015,70.57624999999999
770,12/18/2015,72.64
771,12/17/2015,73.95500000000001
772,12/16/2015,76.67
773,12/15/2015,77.82
774,12/14/2015,75.375
775,12/11/2015,77.095
776,12/10/2015,78.775
777,12/09/2015,78.6375
778,12/08/2015,75.905
779,12/07/2015,76.475
780,12/04/2015,79.67
781,12/03/2015,81.36500000000001
782,12/02/2015,82.2325
783,12/01/2015,83.57499999999999
784,11/30/2015,83.41980000000001
785,11/27/2015,82.58455000000001
786,11/25/2015,83.91499999999999
787,11/24/2015,84.405
788,11/23/2015,82.7195
789,11/20/2015,82.625
790,11/19/2015,83.19200000000001
791,11/18/2015,84.105
792,11/17/2015,83.11825
793,11/16/2015,83.43
794,11/13/2015,81.727
795,11/12/2015,81.84
796,11/11/2015,85.545
797,11/10/2015,85.7975
798,11/09/2015,85.83525
799,11/06/2015,86.36
800,11/05/2015,86.83500000000001
801,11/04/2015,87.35505
802,11/03/2015,87.9
803,11/02/2015,85.60499999999999
804,10/30/2015,85.525
805,10/29/2015,85.015
806,10/28/2015,84.25999999999999
807,10/27/2015,81.5
808,10/26/2015,84.27000000000001
809,10/23/2015,85.205
810,10/22/2015,85.27000000000001
811,10/21/2015,84.055
812,10/20/2015,84.80000000000001
813,10/19/2015,85.28999999999999
814,10/16/2015,87.28
815,10/15/2015,86.045
816,10/14/2015,85.45
817,10/13/2015,85.52000000000001
818,10/12/2015,86.465
819,10/09/2015,87.19999999999999
820,10/08/2015,85.16999999999999
821,10/07/2015,83.79
822,10/06/2015,82.14
823,10/05/2015,79.85
824,10/02/2015,74.52000000000001
825,10/01/2015,74.34
826,09/30/2015,71.805
827,09/29/2015,69.905
828,09/28/2015,70.64435
829,09/25/2015,73.19999999999999
830,09/24/2015,72.6
831,09/23/2015,74.39750000000001
832,09/22/2015,75.675
833,09/21/2015,76.6
834,09/18/2015,77.56
835,09/17/2015,80.15
836,09/16/2015,78.815
837,09/15/2015,77.18225
838,09/14/2015,76.595
839,09/11/2015,76.625
840,09/10/2015,77.185
841,09/09/2015,78.00999999999999
842,09/08/2015,76.815
843,09/04/2015,76.695
844,09/03/2015,78.475
845,09/02/2015,76.28999999999999
846,09/01/2015,76.25
847,08/31/2015,76.865
848,08/28/2015,77.375
849,08/27/2015,74.47999999999999
850,08/26/2015,69.72
851,08/25/2015,70.2
852,08/24/2015,70.715
853,08/21/2015,75.775
854,08/20/2015,77.525
855,08/19/2015,77.9725
856,08/18/2015,79.91
857,08/17/2015,79.525
858,08/14/2015,79.84
859,08/13/2015,79.42
860,08/12/2015,78.38
861,08/11/2015,75.805
862,08/10/2015,75.05000000000001
863,08/07/2015,75.86500000000001
864,08/06/2015,76.82
865,08/05/2015,77.455
866,08/04/2015,77.06
867,08/03/2015,76.53999999999999
868,07/31/2015,77.655
869,07/30/2015,77.75999999999999
870,07/29/2015,77.755
871,07/28/2015,75.47945
872,07/27/2015,73.7975
873,07/24/2015,75.6
874,07/23/2015,76.145
875,07/22/2015,76.625
876,07/21/2015,77.66
877,07/20/2015,79.08500000000001
878,07/17/2015,81.20500000000001
879,07/16/2015,83.07
880,07/15/2015,84.14
881,07/14/2015,84.87
882,07/13/2015,84.13
883,07/10/2015,85.60249999999999
884,07/09/2015,86.265
885,07/08/2015,85.46000000000001
886,07/07/2015,85.465
887,07/06/2015,85.11500000000001
888,07/02/2015,86.1425
889,07/01/2015,86.345
890,06/30/2015,87.12
891,06/29/2015,87.045
892,06/26/2015,87.89
893,06/25/2015,87.785
894,06/24/2015,88.585
895,06/23/2015,88.24
896,06/22/2015,88.06
897,06/19/2015,88.68
898,06/18/2015,89.33500000000001
899,06/17/2015,89.785
900,06/16/2015,89.69425000000001
901,06/15/2015,89.18
902,06/12/2015,89.775
903,06/11/2015,90.64
904,06/10/2015,90.185
905,06/09/2015,90.285
906,06/08/2015,89.29499999999999
907,06/05/2015,88.729
908,06/04/2015,88.205
909,06/03/2015,89.72
910,06/02/2015,89.28
911,06/01/2015,88.65
912,05/29/2015,88.89
913,05/28/2015,88.68
914,05/27/2015,89.225
915,05/26/2015,89.18
916,05/22/2015,90.72985
917,05/21/2015,91.2551
918,05/20/2015,90.24000000000001
919,05/19/2015,90.9225
920,05/18/2015,90.9679
921,05/15/2015,90.245
922,05/14/2015,91.3775
923,05/13/2015,92.525
924,05/12/2015,92.65
925,05/11/2015,92.85249999999999
926,05/08/2015,93.5275
927,05/07/2015,94.25999999999999
928,05/06/2015,95.675
929,05/05/2015,97.36500000000001
930,05/04/2015,99.955
931,05/01/2015,99.305
932,04/30/2015,99.46000000000001
933,04/29/2015,98.885
934,04/28/2015,98.225
935,04/27/2015,97.25999999999999
936,04/24/2015,96.94
937,04/23/2015,98.545
938,04/22/2015,97.44999999999999
939,04/21/2015,97.34
940,04/20/2015,98.095
941,04/17/2015,96.93
942,04/16/2015,98.06
943,04/15/2015,97.3825
944,04/14/2015,96.14500000000001
945,04/13/2015,95.55000000000001
946,04/10/2015,95.925
947,04/09/2015,95.09
948,04/08/2015,94.69
949,04/07/2015,95.055
950,04/06/2015,94.35
951,04/02/2015,91.1
952,04/01/2015,92.205
953,03/31/2015,91.65
954,03/30/2015,91.64
955,03/27/2015,90.63
956,03/26/2015,91.09
957,03/25/2015,89.7175
958,03/24/2015,89.292
959,03/23/2015,90.2051
960,03/20/2015,90.6825
961,03/19/2015,89.13
962,03/18/2015,88.685
963,03/17/2015,87.185
964,03/16/2015,86.545
965,03/13/2015,84.8792
966,03/12/2015,86.405
967,03/11/2015,86.625
968,03/10/2015,87.36
969,03/09/2015,88.44495
970,03/06/2015,89.11500000000001
971,03/05/2015,89.945
972,03/04/2015,89.75
973,03/03/2015,89.85495
974,03/02/2015,88.14
975,02/27/2015,90.0
976,02/26/2015,90.93
977,02/25/2015,92.27000000000001
978,02/24/2015,92.13
979,02/23/2015,90.675
980,02/20/2015,91.76499999999999
981,02/19/2015,90.66
982,02/18/2015,95.495
983,02/17/2015,96.16
984,02/13/2015,96.11
985,02/12/2015,94.35499999999999
986,02/11/2015,93.12
987,02/10/2015,95.265
988,02/09/2015,96.505
989,02/06/2015,96.38999999999999
990,02/05/2015,96.2225
991,02/04/2015,95.535
992,02/03/2015,96.265
993,02/02/2015,91.05
994,01/30/2015,88.735
995,01/29/2015,88.08500000000001
996,01/28/2015,90.224
997,01/27/2015,92.765
998,01/26/2015,91.27000000000001
999,01/23/2015,91.11
1000,01/22/2015,89.97999999999999
1001,01/21/2015,90.54
1002,01/20/2015,88.64994999999999
1003,01/16/2015,88.5375
1004,01/15/2015,87.975
1005,01/14/2015,85.88
1006,01/13/2015,85.35499999999999
1007,01/12/2015,84.275
