,Date,Avg
1,01/11/2019,16.745
2,01/10/2019,16.935
3,01/09/2019,16.695
4,01/08/2019,16.61185
5,01/07/2019,15.844999999999999
6,01/04/2019,15.145
7,01/03/2019,14.67
8,01/02/2019,13.855
9,12/31/2018,13.530000000000001
10,12/28/2018,13.545
11,12/27/2018,13.525
12,12/26/2018,13.535
13,12/24/2018,13.7
14,12/21/2018,14.51
15,12/20/2018,15.059999999999999
16,12/19/2018,15.68
17,12/18/2018,15.615
18,12/17/2018,15.940000000000001
19,12/14/2018,16.25
20,12/13/2018,15.844999999999999
21,12/12/2018,15.66575
22,12/11/2018,15.49
23,12/10/2018,15.73
24,12/07/2018,16.305
25,12/06/2018,15.63495
26,12/04/2018,16.49325
27,12/03/2018,16.745
28,11/30/2018,16.07
29,11/29/2018,16.255000000000003
30,11/28/2018,15.780000000000001
31,11/27/2018,15.885000000000002
32,11/26/2018,16.1675
33,11/23/2018,16.385
34,11/21/2018,16.64495
35,11/20/2018,15.995
36,11/19/2018,16.71
37,11/16/2018,16.9025
38,11/15/2018,17.200000000000003
39,11/14/2018,17.825000000000003
40,11/13/2018,18.03
41,11/12/2018,18.244999999999997
42,11/09/2018,18.415
43,11/08/2018,19.86
44,11/07/2018,21.46
45,11/06/2018,19.505000000000003
46,11/05/2018,19.41
47,11/02/2018,19.4
48,11/01/2018,19.025
49,10/31/2018,18.735
50,10/30/2018,18.4725
51,10/29/2018,18.66
52,10/26/2018,18.655
53,10/25/2018,19.21
54,10/24/2018,19.509999999999998
55,10/23/2018,19.805
56,10/22/2018,20.88
57,10/19/2018,21.225
58,10/18/2018,21.22
59,10/17/2018,21.314999999999998
60,10/16/2018,21.075
61,10/15/2018,20.84
62,10/12/2018,20.705
63,10/11/2018,20.8525
64,10/10/2018,21.3575
65,10/09/2018,21.305
66,10/08/2018,21.835
67,10/05/2018,22.060000000000002
68,10/04/2018,22.095
69,10/03/2018,22.314999999999998
70,10/02/2018,22.409999999999997
71,10/01/2018,22.525
72,09/28/2018,22.049999999999997
73,09/27/2018,21.8125
74,09/26/2018,21.55
75,09/25/2018,21.225
76,09/24/2018,21.5
77,09/21/2018,22.15
78,09/20/2018,22.45
79,09/19/2018,22.8776
80,09/18/2018,23.25
81,09/17/2018,23.387500000000003
82,09/14/2018,23.225
83,09/13/2018,23.425
84,09/12/2018,24.125
85,09/11/2018,23.9125
86,09/10/2018,23.875
87,09/07/2018,23.65
88,09/06/2018,23.975
89,09/05/2018,23.775
90,09/04/2018,24.125
91,08/31/2018,24.175
92,08/30/2018,24.725
93,08/29/2018,25.3
94,08/28/2018,25.65
95,08/27/2018,25.674999999999997
96,08/24/2018,25.825000000000003
97,08/23/2018,25.6125
98,08/22/2018,25.6
99,08/21/2018,25.475
100,08/20/2018,24.925
101,08/17/2018,24.325000000000003
102,08/16/2018,24.825000000000003
103,08/15/2018,24.275
104,08/14/2018,24.7
105,08/13/2018,25.2
106,08/10/2018,25.7625
107,08/09/2018,25.7675
108,08/08/2018,25.8375
109,08/07/2018,25.875
110,08/06/2018,25.65
111,08/03/2018,26.0375
112,08/02/2018,25.475
113,08/01/2018,25.15
114,07/31/2018,24.975
115,07/30/2018,25.025
116,07/27/2018,25.3
117,07/26/2018,25.387500000000003
118,07/25/2018,24.65
119,07/24/2018,24.5875
120,07/23/2018,24.674999999999997
121,07/20/2018,24.6
122,07/19/2018,24.4625
123,07/18/2018,23.700000000000003
124,07/17/2018,23.9875
125,07/16/2018,24.05
126,07/13/2018,24.4375
127,07/12/2018,24.2625
128,07/11/2018,25.1
129,07/10/2018,25.725
130,07/09/2018,25.762500000000003
131,07/06/2018,25.8
132,07/05/2018,25.55
133,07/03/2018,25.3375
134,07/02/2018,25.025
135,06/29/2018,25.4585
136,06/28/2018,25.025
137,06/27/2018,25.387500000000003
138,06/26/2018,24.775
139,06/25/2018,24.6
140,06/22/2018,25.1
141,06/21/2018,25.075000000000003
142,06/20/2018,25.225
143,06/19/2018,24.85
144,06/18/2018,24.475
145,06/15/2018,24.475
146,06/14/2018,24.875
147,06/13/2018,24.775
148,06/12/2018,25.1
149,06/11/2018,24.675
150,06/08/2018,25.2125
151,06/07/2018,25.25
152,06/06/2018,25.4
153,06/05/2018,25.55
154,06/04/2018,25.6625
155,06/01/2018,25.924999999999997
156,05/31/2018,25.5
157,05/30/2018,25.125
158,05/29/2018,24.225
159,05/25/2018,23.799999999999997
160,05/24/2018,24.75
161,05/23/2018,25.1845
162,05/22/2018,25.887500000000003
163,05/21/2018,25.9375
164,05/18/2018,25.875
165,05/17/2018,25.775
166,05/16/2018,25.325000000000003
167,05/15/2018,25.4
168,05/14/2018,25.725
169,05/11/2018,25.425
170,05/10/2018,25.5
171,05/09/2018,23.9
172,05/08/2018,24.025
173,05/07/2018,24.225
174,05/04/2018,23.8125
175,05/03/2018,24.275
176,05/02/2018,24.775
177,05/01/2018,24.75
178,04/30/2018,24.9
179,04/27/2018,24.675
180,04/26/2018,24.299999999999997
181,04/25/2018,23.65
182,04/24/2018,24.1625
183,04/23/2018,24.081249999999997
184,04/20/2018,24.4
185,04/19/2018,24.75
186,04/18/2018,24.299999999999997
187,04/17/2018,24.025
188,04/16/2018,23.3
189,04/13/2018,22.7625
190,04/12/2018,22.775
191,04/11/2018,22.85
192,04/10/2018,22.6875
193,04/09/2018,22.299999999999997
194,04/06/2018,22.35
195,04/05/2018,22.5125
196,04/04/2018,21.3125
197,04/03/2018,20.924999999999997
198,04/02/2018,21.4
199,03/29/2018,21.012500000000003
200,03/28/2018,20.6
201,03/27/2018,21.225
202,03/26/2018,21.1
203,03/23/2018,21.825000000000003
204,03/22/2018,22.4
205,03/21/2018,22.35
206,03/20/2018,21.9
207,03/19/2018,21.75
208,03/16/2018,22.25
209,03/15/2018,21.85
210,03/14/2018,22.6
211,03/13/2018,22.85
212,03/12/2018,22.775
213,03/09/2018,21.95
214,03/08/2018,21.2125
215,03/07/2018,21.6
216,03/06/2018,22.3
217,03/05/2018,22.362499999999997
218,03/02/2018,22.025
219,03/01/2018,22.3125
220,02/28/2018,22.725
221,02/27/2018,23.15
222,02/26/2018,23.675
223,02/23/2018,24.925
224,02/22/2018,25.475
225,02/21/2018,26.8125
226,02/20/2018,27.200000000000003
227,02/16/2018,27.475
228,02/15/2018,27.3375
229,02/14/2018,26.525
230,02/13/2018,26.35
231,02/12/2018,25.85
232,02/09/2018,25.725
233,02/08/2018,26.975
234,02/07/2018,27.5125
235,02/06/2018,26.5875
236,02/05/2018,26.95
237,02/02/2018,28.15
238,02/01/2018,28.675
239,01/31/2018,28.94995
240,01/30/2018,29.175
241,01/29/2018,29.625
242,01/26/2018,30.025
243,01/25/2018,29.700000000000003
244,01/24/2018,29.75
245,01/23/2018,29.375
246,01/22/2018,29.700000000000003
247,01/19/2018,28.875
248,01/18/2018,29.0
249,01/17/2018,28.75
250,01/16/2018,29.4375
251,01/12/2018,28.9375
252,01/11/2018,28.225
253,01/10/2018,27.925
254,01/09/2018,28.45
255,01/08/2018,28.35
256,01/05/2018,28.450000000000003
257,01/04/2018,30.15
258,01/03/2018,30.6375
259,01/02/2018,30.25
260,12/29/2017,30.25
261,12/28/2017,29.875
262,12/27/2017,29.674999999999997
263,12/26/2017,29.65
264,12/22/2017,28.975
265,12/21/2017,29.0625
266,12/20/2017,28.6
267,12/19/2017,28.625
268,12/18/2017,28.4
269,12/15/2017,27.95
270,12/14/2017,28.15
271,12/13/2017,27.2125
272,12/12/2017,26.775
273,12/11/2017,26.225
274,12/08/2017,25.45
275,12/07/2017,24.825000000000003
276,12/06/2017,24.525
277,12/05/2017,25.125
278,12/04/2017,25.174999999999997
279,12/01/2017,24.5375
280,11/30/2017,23.325
281,11/29/2017,22.85
282,11/28/2017,22.424999999999997
283,11/27/2017,22.549999999999997
284,11/24/2017,23.174999999999997
285,11/22/2017,23.225
286,11/21/2017,23.025
287,11/20/2017,22.575000000000003
288,11/17/2017,21.975
289,11/16/2017,22.575
290,11/15/2017,22.45
291,11/14/2017,23.0
292,11/13/2017,24.05
293,11/10/2017,25.225
294,11/09/2017,24.475
295,11/08/2017,26.325000000000003
296,11/07/2017,26.375
297,11/06/2017,26.450000000000003
298,11/03/2017,26.4
299,11/02/2017,26.75
300,11/01/2017,26.725
301,10/31/2017,25.924999999999997
302,10/30/2017,26.025
303,10/27/2017,25.525
304,10/26/2017,25.1
305,10/25/2017,25.4
306,10/24/2017,25.9
307,10/23/2017,26.1375
308,10/20/2017,26.7
309,10/19/2017,26.75
310,10/18/2017,27.012549999999997
311,10/17/2017,27.35
312,10/16/2017,28.325
313,10/13/2017,29.025
314,10/12/2017,28.85
315,10/11/2017,29.05
316,10/10/2017,29.1
317,10/09/2017,28.8
318,10/06/2017,28.5
319,10/05/2017,28.525
320,10/04/2017,28.925
321,10/03/2017,28.975
322,10/02/2017,28.525
323,09/29/2017,28.7875
324,09/28/2017,28.575
325,09/27/2017,28.475
326,09/26/2017,28.325
327,09/25/2017,28.4
328,09/22/2017,27.025
329,09/21/2017,26.7875
330,09/20/2017,26.925
331,09/19/2017,27.450000000000003
332,09/18/2017,27.7
333,09/15/2017,27.675
334,09/14/2017,27.700000000000003
335,09/13/2017,27.125
336,09/12/2017,26.525
337,09/11/2017,26.174999999999997
338,09/08/2017,26.075000000000003
339,09/07/2017,26.6
340,09/06/2017,26.35
341,09/05/2017,25.575
342,09/01/2017,25.35
343,08/31/2017,25.475
344,08/30/2017,25.1875
345,08/29/2017,24.775
346,08/28/2017,24.725
347,08/25/2017,24.799950000000003
348,08/24/2017,24.80005
349,08/23/2017,24.45
350,08/22/2017,23.788249999999998
351,08/21/2017,23.175
352,08/18/2017,23.07265
353,08/17/2017,22.975
354,08/16/2017,23.075
355,08/15/2017,23.525
356,08/14/2017,23.85
357,08/11/2017,23.625
358,08/10/2017,24.2
359,08/09/2017,24.675
360,08/08/2017,25.25
361,08/07/2017,25.885
362,08/04/2017,25.575
363,08/03/2017,25.95
364,08/02/2017,26.375
365,08/01/2017,26.9
366,07/31/2017,26.65
367,07/28/2017,27.0625
368,07/27/2017,26.549999999999997
369,07/26/2017,26.475
370,07/25/2017,26.65
371,07/24/2017,25.975
372,07/21/2017,26.3625
373,07/20/2017,26.549999999999997
374,07/19/2017,26.475
375,07/18/2017,26.275
376,07/17/2017,26.512500000000003
377,07/14/2017,26.8755
378,07/13/2017,26.05
379,07/12/2017,26.125
380,07/11/2017,25.4625
381,07/10/2017,25.424999999999997
382,07/07/2017,25.125
383,07/06/2017,25.975
384,07/05/2017,26.35
385,07/03/2017,27.275
386,06/30/2017,27.1125
387,06/29/2017,26.775
388,06/28/2017,26.65
389,06/27/2017,25.950000000000003
390,06/26/2017,24.7625
391,06/23/2017,24.0
392,06/22/2017,23.25
393,06/21/2017,23.4
394,06/20/2017,23.85
395,06/19/2017,25.075
396,06/16/2017,25.0
397,06/15/2017,25.475
398,06/14/2017,27.299999999999997
399,06/13/2017,28.5
400,06/12/2017,27.7125
401,06/09/2017,26.924999999999997
402,06/08/2017,26.1
403,06/07/2017,27.35
404,06/06/2017,30.15
405,06/05/2017,31.25
406,06/02/2017,31.3475
407,06/01/2017,31.424999999999997
408,05/31/2017,30.85
409,05/30/2017,31.924999999999997
410,05/26/2017,32.955
411,05/25/2017,33.425
412,05/24/2017,33.43755
413,05/23/2017,33.3
414,05/22/2017,33.20855
415,05/19/2017,32.8689
416,05/18/2017,32.150000000000006
417,05/17/2017,32.25
418,05/16/2017,32.775
419,05/15/2017,33.0
420,05/12/2017,32.025000000000006
421,05/11/2017,31.674999999999997
422,05/10/2017,31.625749999999996
423,05/09/2017,31.6
424,05/08/2017,31.9
425,05/05/2017,31.325
426,05/04/2017,31.325
427,05/03/2017,32.95
428,05/02/2017,33.6375
429,05/01/2017,33.4375
430,04/28/2017,33.400000000000006
431,04/27/2017,33.85
432,04/26/2017,34.65
433,04/25/2017,34.025
434,04/24/2017,33.825
435,04/21/2017,33.275000000000006
436,04/20/2017,33.6
437,04/19/2017,34.025000000000006
438,04/18/2017,34.400000000000006
439,04/17/2017,34.55
440,04/13/2017,35.0
441,04/12/2017,35.099999999999994
442,04/11/2017,35.349999999999994
443,04/10/2017,35.7
444,04/07/2017,35.46255
445,04/06/2017,35.349999999999994
446,04/05/2017,35.8
447,04/04/2017,35.55
448,04/03/2017,35.725
449,03/31/2017,35.575
450,03/30/2017,35.375
451,03/29/2017,34.525000000000006
452,03/28/2017,33.325
453,03/27/2017,32.925
454,03/24/2017,33.412499999999994
455,03/23/2017,33.375
456,03/22/2017,33.3875
457,03/21/2017,33.95
458,03/20/2017,34.5375
459,03/17/2017,34.55
460,03/16/2017,34.4
461,03/15/2017,33.974999999999994
462,03/14/2017,33.3625
463,03/13/2017,34.175
464,03/10/2017,33.425
465,03/09/2017,33.0375
466,03/08/2017,34.45
467,03/07/2017,35.375
468,03/06/2017,36.35
469,03/03/2017,36.325
470,03/02/2017,36.275
471,03/01/2017,35.925
472,02/28/2017,35.525000000000006
473,02/27/2017,36.099999999999994
474,02/24/2017,37.3125
475,02/23/2017,38.875
476,02/22/2017,39.0
477,02/21/2017,40.25
478,02/17/2017,39.675
479,02/16/2017,40.35
480,02/15/2017,40.3
481,02/14/2017,40.35
482,02/13/2017,39.837500000000006
483,02/10/2017,40.25
484,02/09/2017,39.849999999999994
485,02/08/2017,38.925
486,02/07/2017,39.975
487,02/06/2017,41.599999999999994
488,02/03/2017,41.425
489,02/02/2017,40.224999999999994
490,02/01/2017,39.974999999999994
491,01/31/2017,39.55
492,01/30/2017,39.85
493,01/27/2017,40.87795
494,01/26/2017,41.775
495,01/25/2017,41.125
496,01/24/2017,40.2825
497,01/23/2017,39.925
498,01/20/2017,40.75
499,01/19/2017,40.575
500,01/18/2017,40.55515
501,01/17/2017,40.775
502,01/13/2017,40.075
503,01/12/2017,40.25
504,01/11/2017,40.0
505,01/10/2017,39.875
506,01/09/2017,40.698750000000004
507,01/06/2017,41.75
508,01/05/2017,42.075
509,01/04/2017,42.400000000000006
510,01/03/2017,42.125
511,12/30/2016,41.625
512,12/29/2016,41.75
513,12/28/2016,42.475
514,12/27/2016,42.525000000000006
515,12/23/2016,42.075
516,12/22/2016,41.6
517,12/21/2016,41.275000000000006
518,12/20/2016,41.475
519,12/19/2016,41.175
520,12/16/2016,40.575
521,12/15/2016,39.425
522,12/14/2016,39.4625
523,12/13/2016,39.45
524,12/12/2016,39.8
525,12/09/2016,39.66875
526,12/08/2016,39.6
527,12/07/2016,38.425
528,12/06/2016,37.599999999999994
529,12/05/2016,37.75
530,12/02/2016,36.725
531,12/01/2016,36.474999999999994
532,11/30/2016,35.475
533,11/29/2016,33.25
534,11/28/2016,35.0125
535,11/25/2016,35.275000000000006
536,11/23/2016,34.875
537,11/22/2016,35.125
538,11/21/2016,35.15
539,11/18/2016,34.625
540,11/17/2016,33.8
541,11/16/2016,33.275000000000006
542,11/15/2016,33.525
543,11/14/2016,32.75
544,11/11/2016,32.9
545,11/10/2016,33.400000000000006
546,11/09/2016,32.7305
547,11/08/2016,32.3
548,11/07/2016,30.7
549,11/04/2016,30.4
550,11/03/2016,30.75
551,11/02/2016,30.3735
552,11/01/2016,32.1
553,10/31/2016,32.055
554,10/28/2016,33.3
555,10/27/2016,33.9625
556,10/26/2016,33.599999999999994
557,10/25/2016,34.575
558,10/24/2016,34.55
559,10/21/2016,34.6625
560,10/20/2016,34.425
561,10/19/2016,34.375
562,10/18/2016,34.162499999999994
563,10/17/2016,33.4
564,10/14/2016,33.445
565,10/13/2016,33.1725
566,10/12/2016,33.205
567,10/11/2016,32.487899999999996
568,10/10/2016,33.57
569,10/07/2016,34.45
570,10/06/2016,35.28
571,10/05/2016,35.76
572,10/04/2016,34.864999999999995
573,10/03/2016,34.945
574,09/30/2016,34.6
575,09/29/2016,33.61
576,09/28/2016,32.85
577,09/27/2016,31.92
578,09/26/2016,32.72
579,09/23/2016,33.1625
580,09/22/2016,33.61750000000001
581,09/21/2016,33.1475
582,09/20/2016,32.9975
583,09/19/2016,33.8
584,09/16/2016,32.698499999999996
585,09/15/2016,33.45
586,09/14/2016,33.6475
587,09/13/2016,33.785
588,09/12/2016,34.08
589,09/09/2016,34.06
590,09/08/2016,34.165
591,09/07/2016,32.8
592,09/06/2016,31.715000000000003
593,09/02/2016,31.335
594,09/01/2016,30.605
595,08/31/2016,30.585
596,08/30/2016,31.605
597,08/29/2016,31.439999999999998
598,08/26/2016,31.5195
599,08/25/2016,31.189999999999998
600,08/24/2016,30.98
601,08/23/2016,31.29005
602,08/22/2016,31.305
603,08/19/2016,32.24
604,08/18/2016,31.86
605,08/17/2016,30.905
606,08/16/2016,30.9175
607,08/15/2016,30.375
608,08/12/2016,29.619999999999997
609,08/11/2016,28.915
610,08/10/2016,28.98
611,08/09/2016,29.175
612,08/08/2016,29.86
613,08/05/2016,30.299999999999997
614,08/04/2016,30.3525
615,08/03/2016,29.525
616,08/02/2016,28.775
617,08/01/2016,28.415
618,07/29/2016,29.045
619,07/28/2016,29.055
620,07/27/2016,29.95
621,07/26/2016,30.75295
622,07/25/2016,31.025
623,07/22/2016,31.130000000000003
624,07/21/2016,31.924999999999997
625,07/20/2016,31.7525
626,07/19/2016,32.81
627,07/18/2016,33.295
628,07/15/2016,33.44
629,07/14/2016,33.215
630,07/13/2016,33.16
631,07/12/2016,33.75
632,07/11/2016,33.04
633,07/08/2016,32.625
634,07/07/2016,32.205
635,07/06/2016,31.5325
636,07/05/2016,31.7725
637,07/01/2016,33.285
638,06/30/2016,32.157000000000004
639,06/29/2016,32.175
640,06/28/2016,31.37
641,06/27/2016,29.875
642,06/24/2016,31.21
643,06/23/2016,32.145
644,06/22/2016,31.130000000000003
645,06/21/2016,29.939999999999998
646,06/20/2016,30.509999999999998
647,06/17/2016,29.325000000000003
648,06/16/2016,29.0
649,06/15/2016,30.3375
650,06/14/2016,29.655
651,06/13/2016,30.46
652,06/10/2016,31.895
653,06/09/2016,33.489999999999995
654,06/08/2016,34.8625
655,06/07/2016,34.325
656,06/06/2016,33.855000000000004
657,06/03/2016,33.05
658,06/02/2016,32.55
659,06/01/2016,32.17
660,05/31/2016,30.815
661,05/27/2016,28.515
662,05/26/2016,29.35
663,05/25/2016,29.965
664,05/24/2016,29.82
665,05/23/2016,30.34
666,05/20/2016,30.705
667,05/19/2016,30.045
668,05/18/2016,30.57
669,05/17/2016,30.385
670,05/16/2016,29.740000000000002
671,05/13/2016,28.825
672,05/12/2016,28.78
673,05/11/2016,28.41
674,05/10/2016,29.025
675,05/09/2016,27.729999999999997
676,05/06/2016,28.8
677,05/05/2016,28.759999999999998
678,05/04/2016,28.064999999999998
679,05/03/2016,27.98
680,05/02/2016,29.64495
681,04/29/2016,30.835
682,04/28/2016,31.665
683,04/27/2016,30.535
684,04/26/2016,28.58
685,04/25/2016,28.380000000000003
686,04/22/2016,29.575000000000003
687,04/21/2016,28.455
688,04/20/2016,27.814999999999998
689,04/19/2016,26.8
690,04/18/2016,24.42
691,04/15/2016,24.5
692,04/14/2016,25.09
693,04/13/2016,25.820050000000002
694,04/12/2016,24.57
695,04/11/2016,23.29
696,04/08/2016,23.33
697,04/07/2016,22.0275
698,04/06/2016,21.485
699,04/05/2016,20.605600000000003
700,04/04/2016,20.95
701,04/01/2016,21.15
702,03/31/2016,22.082500000000003
703,03/30/2016,21.975
704,03/29/2016,21.22
705,03/28/2016,21.57
706,03/24/2016,21.93
707,03/23/2016,21.845
708,03/22/2016,22.45055
709,03/21/2016,23.020000000000003
710,03/18/2016,23.95
711,03/17/2016,23.229999999999997
712,03/16/2016,21.2
713,03/15/2016,19.505000000000003
714,03/14/2016,20.455
715,03/11/2016,20.835
716,03/10/2016,19.5512
717,03/09/2016,19.851
718,03/08/2016,21.9775
719,03/07/2016,22.119999999999997
720,03/04/2016,22.18
721,03/03/2016,20.195
722,03/02/2016,18.8925
723,03/01/2016,18.784
724,02/29/2016,19.025
725,02/26/2016,18.549999999999997
726,02/25/2016,17.115000000000002
727,02/24/2016,16.145
728,02/23/2016,17.4575
729,02/22/2016,18.240000000000002
730,02/19/2016,16.4
731,02/18/2016,17.58
732,02/17/2016,17.685000000000002
733,02/16/2016,16.265
734,02/12/2016,15.775
735,02/11/2016,14.9025
736,02/10/2016,15.875
737,02/09/2016,17.02
738,02/08/2016,20.295
739,02/05/2016,22.119999999999997
740,02/04/2016,22.21
741,02/03/2016,20.53
742,02/02/2016,20.805
743,02/01/2016,20.96
744,01/29/2016,22.17
745,01/28/2016,22.065
746,01/27/2016,20.939999999999998
747,01/26/2016,19.945
748,01/25/2016,20.14
749,01/22/2016,20.270000000000003
750,01/21/2016,17.0925
751,01/20/2016,16.04
752,01/19/2016,18.5
753,01/15/2016,20.23
754,01/14/2016,21.880000000000003
755,01/13/2016,22.005
756,01/12/2016,23.57
757,01/11/2016,24.6025
758,01/08/2016,25.22
759,01/07/2016,24.939999999999998
760,01/06/2016,26.32
761,01/05/2016,28.41
762,01/04/2016,28.27
763,12/31/2015,28.060000000000002
764,12/30/2015,27.505000000000003
765,12/29/2015,29.259999999999998
766,12/28/2015,29.125
767,12/24/2015,30.195
768,12/23/2015,28.845
769,12/22/2015,25.52
770,12/21/2015,23.424999999999997
771,12/18/2015,24.675
772,12/17/2015,25.39
773,12/16/2015,25.945
774,12/15/2015,26.0883
775,12/14/2015,25.740000000000002
776,12/11/2015,27.700000000000003
777,12/10/2015,29.770000000000003
778,12/09/2015,29.255
779,12/08/2015,26.98
780,12/07/2015,27.825000000000003
781,12/04/2015,29.04015
782,12/03/2015,31.55
783,12/02/2015,32.45
784,12/01/2015,34.305
785,11/30/2015,34.959999999999994
786,11/27/2015,34.985
787,11/25/2015,35.375
788,11/24/2015,34.455
789,11/23/2015,34.22
790,11/20/2015,34.504999999999995
791,11/19/2015,35.2425
792,11/18/2015,35.980000000000004
793,11/17/2015,35.55
794,11/16/2015,34.754999999999995
795,11/13/2015,33.295
796,11/12/2015,34.36
797,11/11/2015,36.739999999999995
798,11/10/2015,37.225
799,11/09/2015,39.1025
800,11/06/2015,38.120000000000005
801,11/05/2015,41.465
802,11/04/2015,43.325
803,11/03/2015,45.995
804,11/02/2015,46.08
805,10/30/2015,45.625
806,10/29/2015,46.205
807,10/28/2015,45.20335
808,10/27/2015,44.205
809,10/26/2015,46.92
810,10/23/2015,48.0075
811,10/22/2015,47.724999999999994
812,10/21/2015,49.675
813,10/20/2015,51.379999999999995
814,10/19/2015,50.405
815,10/16/2015,52.0475
816,10/15/2015,50.725
817,10/14/2015,51.045
818,10/13/2015,51.91
819,10/12/2015,51.785
820,10/09/2015,53.405
821,10/08/2015,53.5725
822,10/07/2015,54.182500000000005
823,10/06/2015,51.875
824,10/05/2015,49.685
825,10/02/2015,46.114999999999995
826,10/01/2015,45.379999999999995
827,09/30/2015,42.584999999999994
828,09/29/2015,43.605
829,09/28/2015,46.135000000000005
830,09/25/2015,47.85
831,09/24/2015,48.075
832,09/23/2015,49.745000000000005
833,09/22/2015,50.72
834,09/21/2015,50.97
835,09/18/2015,49.905
836,09/17/2015,51.03
837,09/16/2015,49.9725
838,09/15/2015,49.54
839,09/14/2015,48.775
840,09/11/2015,49.835
841,09/10/2015,51.45
842,09/09/2015,52.355000000000004
843,09/08/2015,52.0975
844,09/04/2015,52.084999999999994
845,09/03/2015,53.095
846,09/02/2015,52.4075
847,09/01/2015,53.605000000000004
848,08/31/2015,54.275
849,08/28/2015,54.019999999999996
850,08/27/2015,52.655
851,08/26/2015,49.834999999999994
852,08/25/2015,50.81
853,08/24/2015,49.51
854,08/21/2015,51.615
855,08/20/2015,54.28
856,08/19/2015,55.855000000000004
857,08/18/2015,57.165000000000006
858,08/17/2015,57.209
859,08/14/2015,56.019000000000005
860,08/13/2015,56.8
861,08/12/2015,57.61
862,08/11/2015,57.87
863,08/10/2015,56.900999999999996
864,08/07/2015,57.724999999999994
865,08/06/2015,59.21
866,08/05/2015,64.21000000000001
867,08/04/2015,67.77000000000001
868,08/03/2015,69.86500000000001
869,07/31/2015,71.27000000000001
870,07/30/2015,71.955
871,07/29/2015,71.17
872,07/28/2015,69.21000000000001
873,07/27/2015,68.95750000000001
874,07/24/2015,71.36500000000001
875,07/23/2015,72.6
876,07/22/2015,73.72999999999999
877,07/21/2015,76.685
878,07/20/2015,77.455
879,07/17/2015,78.125
880,07/16/2015,79.155
881,07/15/2015,79.81995
882,07/14/2015,80.225
883,07/13/2015,78.785
884,07/10/2015,76.37
885,07/09/2015,75.325
886,07/08/2015,74.64
887,07/07/2015,74.665
888,07/06/2015,75.42
889,07/02/2015,77.65
890,07/01/2015,78.99000000000001
891,06/30/2015,80.28
892,06/29/2015,80.275
893,06/26/2015,80.91999999999999
894,06/25/2015,81.155
895,06/24/2015,81.72
896,06/23/2015,81.075
897,06/22/2015,80.28999999999999
898,06/19/2015,78.57
899,06/18/2015,78.35
900,06/17/2015,77.025
901,06/16/2015,76.22
902,06/15/2015,76.4
903,06/12/2015,77.155
904,06/11/2015,77.855
905,06/10/2015,77.47
906,06/09/2015,77.34
907,06/08/2015,77.29499999999999
908,06/05/2015,77.6175
909,06/04/2015,78.00999999999999
910,06/03/2015,79.305
911,06/02/2015,79.355
912,06/01/2015,78.925
913,05/29/2015,79.16499999999999
914,05/28/2015,79.57
915,05/27/2015,80.83500000000001
916,05/26/2015,80.9
917,05/22/2015,81.655
918,05/21/2015,82.189
919,05/20/2015,81.475
920,05/19/2015,81.49875
921,05/18/2015,81.49000000000001
922,05/15/2015,80.28999999999999
923,05/14/2015,80.60499999999999
924,05/13/2015,81.07499999999999
925,05/12/2015,80.6
926,05/11/2015,81.275
927,05/08/2015,81.935
928,05/07/2015,83.03999999999999
929,05/06/2015,83.51495
930,05/05/2015,84.51
931,05/04/2015,85.245
932,05/01/2015,84.705
933,04/30/2015,84.755
934,04/29/2015,85.1375
935,04/28/2015,84.42
936,04/27/2015,84.91005
937,04/24/2015,85.83500000000001
938,04/23/2015,86.285
939,04/22/2015,84.82
940,04/21/2015,84.14
941,04/20/2015,85.11250000000001
942,04/17/2015,85.33500000000001
943,04/16/2015,85.53
944,04/15/2015,85.89
945,04/14/2015,84.6755
946,04/13/2015,83.77
947,04/10/2015,83.975
948,04/09/2015,84.125
949,04/08/2015,83.75
950,04/07/2015,83.02000000000001
951,04/06/2015,82.855
952,04/02/2015,82.43
953,04/01/2015,81.83
954,03/31/2015,80.89500000000001
955,03/30/2015,80.315
956,03/27/2015,78.43
957,03/26/2015,78.06995
958,03/25/2015,77.75999999999999
959,03/24/2015,78.805
960,03/23/2015,78.64500000000001
961,03/20/2015,78.418
962,03/19/2015,76.97
963,03/18/2015,77.98
964,03/17/2015,76.816
965,03/16/2015,76.47999999999999
966,03/13/2015,77.205
967,03/12/2015,77.8005
968,03/11/2015,77.95
969,03/10/2015,78.255
970,03/09/2015,80.35499999999999
971,03/06/2015,80.32
972,03/05/2015,80.09
973,03/04/2015,79.77
974,03/03/2015,78.63
975,03/02/2015,77.185
976,02/27/2015,75.85499999999999
977,02/26/2015,71.375
978,02/25/2015,72.17
979,02/24/2015,71.725
980,02/23/2015,71.16499999999999
981,02/20/2015,71.07
982,02/19/2015,70.985
983,02/18/2015,72.315
984,02/17/2015,72.31
985,02/13/2015,72.38
986,02/12/2015,70.635
987,02/11/2015,69.565
988,02/10/2015,69.535
989,02/09/2015,70.0125
990,02/06/2015,70.351
991,02/05/2015,70.485
992,02/04/2015,68.86000000000001
993,02/03/2015,69.945
994,02/02/2015,68.155
995,01/30/2015,67.12
996,01/29/2015,65.95750000000001
997,01/28/2015,68.07499999999999
998,01/27/2015,68.94749999999999
999,01/26/2015,67.815
1000,01/23/2015,64.19
1001,01/22/2015,64.3275
1002,01/21/2015,62.055
1003,01/20/2015,61.47
1004,01/16/2015,60.615
1005,01/15/2015,59.455
1006,01/14/2015,57.879999999999995
1007,01/13/2015,59.620000000000005
1008,01/12/2015,62.027
