,Date,Avg
1,01/11/2019,101.94
2,01/10/2019,101.6575
3,01/09/2019,101.01750000000001
4,01/08/2019,100.575
5,01/07/2019,100.375
6,01/04/2019,98.78
7,01/03/2019,99.49000000000001
8,01/02/2019,101.325
9,12/31/2018,102.07
10,12/28/2018,101.69
11,12/27/2018,99.715
12,12/26/2018,96.85495
13,12/24/2018,96.72
14,12/21/2018,97.9
15,12/20/2018,97.495
16,12/19/2018,97.745
17,12/18/2018,97.47
18,12/17/2018,98.53
19,12/14/2018,99.20505
20,12/13/2018,102.315
21,12/12/2018,104.11
22,12/11/2018,104.175
23,12/10/2018,102.475
24,12/07/2018,105.07
25,12/06/2018,104.51005
26,12/04/2018,108.635
27,12/03/2018,110.37
28,11/30/2018,109.115
29,11/29/2018,108.5875
30,11/28/2018,106.11500000000001
31,11/27/2018,106.36500000000001
32,11/26/2018,107.485
33,11/23/2018,107.035
34,11/21/2018,107.36500000000001
35,11/20/2018,105.77000000000001
36,11/19/2018,107.78
37,11/16/2018,106.93430000000001
38,11/15/2018,105.87
39,11/14/2018,105.68
40,11/13/2018,104.99000000000001
41,11/12/2018,106.575
42,11/09/2018,107.475
43,11/08/2018,107.33500000000001
44,11/07/2018,108.09
45,11/06/2018,106.855
46,11/05/2018,106.58500000000001
47,11/02/2018,106.795
48,11/01/2018,106.235
49,10/31/2018,105.36
50,10/30/2018,103.36165
51,10/29/2018,103.66
52,10/26/2018,102.50999999999999
53,10/25/2018,102.235
54,10/24/2018,99.06
55,10/23/2018,99.70500000000001
56,10/22/2018,100.82499999999999
57,10/19/2018,100.79499999999999
58,10/18/2018,99.01
59,10/17/2018,97.935
60,10/16/2018,97.1525
61,10/15/2018,95.52000000000001
62,10/12/2018,96.195
63,10/11/2018,97.96000000000001
64,10/10/2018,99.565
65,10/09/2018,100.11500000000001
66,10/08/2018,108.785
67,10/05/2018,108.2875
68,10/04/2018,108.165
69,10/03/2018,109.99000000000001
70,10/02/2018,110.285
71,10/01/2018,109.83
72,09/28/2018,108.14
73,09/27/2018,109.655
74,09/26/2018,111.175
75,09/25/2018,112.05
76,09/24/2018,112.125
77,09/21/2018,116.14495
78,09/20/2018,115.85499999999999
79,09/19/2018,114.25
80,09/18/2018,113.13499999999999
81,09/17/2018,112.6525
82,09/14/2018,112.38499999999999
83,09/13/2018,113.065
84,09/12/2018,112.047
85,09/11/2018,112.22
86,09/10/2018,111.9825
87,09/07/2018,111.22
88,09/06/2018,111.37
89,09/05/2018,109.875
90,09/04/2018,109.82
91,08/31/2018,110.56
92,08/30/2018,110.775
93,08/29/2018,110.6
94,08/28/2018,110.49000000000001
95,08/27/2018,111.005
96,08/24/2018,110.285
97,08/23/2018,110.226
98,08/22/2018,110.8
99,08/21/2018,110.75255
100,08/20/2018,109.49
101,08/17/2018,108.11269999999999
102,08/16/2018,107.92
103,08/15/2018,106.32
104,08/14/2018,106.63499999999999
105,08/13/2018,106.61250000000001
106,08/10/2018,108.18
107,08/09/2018,109.06
108,08/08/2018,109.37
109,08/07/2018,110.33500000000001
110,08/06/2018,110.275
111,08/03/2018,110.3605
112,08/02/2018,109.25
113,08/01/2018,110.42
114,07/31/2018,110.1325
115,07/30/2018,110.045
116,07/27/2018,109.5075
117,07/26/2018,110.07
118,07/25/2018,108.5
119,07/24/2018,105.455
120,07/23/2018,104.44999999999999
121,07/20/2018,105.37
122,07/19/2018,105.18
123,07/18/2018,106.54005
124,07/17/2018,103.87
125,07/16/2018,102.97
126,07/13/2018,103.52250000000001
127,07/12/2018,103.87
128,07/11/2018,104.065
129,07/10/2018,104.28999999999999
130,07/09/2018,103.6275
131,07/06/2018,102.61
132,07/05/2018,102.2525
133,07/03/2018,102.85
134,07/02/2018,102.27495
135,06/29/2018,104.85
136,06/28/2018,105.42
137,06/27/2018,105.66499999999999
138,06/26/2018,106.01
139,06/25/2018,104.84
140,06/22/2018,105.19
141,06/21/2018,104.2
142,06/20/2018,104.635
143,06/19/2018,103.64500000000001
144,06/18/2018,104.385
145,06/15/2018,104.66
146,06/14/2018,103.435
147,06/13/2018,103.53999999999999
148,06/12/2018,103.515
149,06/11/2018,103.925
150,06/08/2018,103.455
151,06/07/2018,103.305
152,06/06/2018,102.97999999999999
153,06/05/2018,102.445
154,06/04/2018,102.41499999999999
155,06/01/2018,101.9075
156,05/31/2018,101.29499999999999
157,05/30/2018,101.101
158,05/29/2018,101.86
159,05/25/2018,102.59
160,05/24/2018,102.215
161,05/23/2018,102.34
162,05/22/2018,103.97625
163,05/21/2018,105.35
164,05/18/2018,104.66499999999999
165,05/17/2018,103.9825
166,05/16/2018,102.595
167,05/15/2018,102.5144
168,05/14/2018,101.97
169,05/11/2018,103.325
170,05/10/2018,106.82
171,05/09/2018,106.75999999999999
172,05/08/2018,106.555
173,05/07/2018,106.31
174,05/04/2018,105.5875
175,05/03/2018,105.24000000000001
176,05/02/2018,106.33500000000001
177,05/01/2018,105.47749999999999
178,04/30/2018,107.325
179,04/27/2018,107.77000000000001
180,04/26/2018,107.265
181,04/25/2018,107.695
182,04/24/2018,106.92
183,04/23/2018,109.25
184,04/20/2018,109.20349999999999
185,04/19/2018,111.13749999999999
186,04/18/2018,113.30250000000001
187,04/17/2018,112.5775
188,04/16/2018,111.22749999999999
189,04/13/2018,110.245
190,04/12/2018,109.53
191,04/11/2018,109.21
192,04/10/2018,110.575
193,04/09/2018,110.37
194,04/06/2018,110.13
195,04/05/2018,111.695
196,04/04/2018,109.42
197,04/03/2018,109.11000000000001
198,04/02/2018,109.31
199,03/29/2018,111.285
200,03/28/2018,111.3875
201,03/27/2018,112.695
202,03/26/2018,111.055
203,03/23/2018,110.94
204,03/22/2018,112.44
205,03/21/2018,114.58250000000001
206,03/20/2018,114.64
207,03/19/2018,113.74000000000001
208,03/16/2018,114.53
209,03/15/2018,114.9025
210,03/14/2018,115.715
211,03/13/2018,116.655
212,03/12/2018,117.11
213,03/09/2018,116.845
214,03/08/2018,115.24000000000001
215,03/07/2018,114.50999999999999
216,03/06/2018,114.42
217,03/05/2018,111.295
218,03/02/2018,110.24000000000001
219,03/01/2018,111.715
220,02/28/2018,113.505
221,02/27/2018,116.57499999999999
222,02/26/2018,116.995
223,02/23/2018,116.74
224,02/22/2018,116.3425
225,02/21/2018,116.525
226,02/20/2018,115.4325
227,02/16/2018,116.30000000000001
228,02/15/2018,115.68
229,02/14/2018,115.145
230,02/13/2018,113.71
231,02/12/2018,113.795
232,02/09/2018,110.97
233,02/08/2018,112.235
234,02/07/2018,115.11
235,02/06/2018,111.9
236,02/05/2018,114.37
237,02/02/2018,116.4825
238,02/01/2018,117.16999999999999
239,01/31/2018,118.63499999999999
240,01/30/2018,118.72
241,01/29/2018,120.515
242,01/26/2018,120.56
243,01/25/2018,119.8725
244,01/24/2018,118.235
245,01/23/2018,117.31
246,01/22/2018,117.50999999999999
247,01/19/2018,117.83
248,01/18/2018,118.61234999999999
249,01/17/2018,115.66
250,01/16/2018,117.58
251,01/12/2018,118.1325
252,01/11/2018,116.99000000000001
253,01/10/2018,117.32
254,01/09/2018,118.6625
255,01/08/2018,118.8375
256,01/05/2018,118.27
257,01/04/2018,118.53999999999999
258,01/03/2018,117.975
259,01/02/2018,117.405
260,12/29/2017,117.25
261,12/28/2017,116.7
262,12/27/2017,116.32499999999999
263,12/26/2017,116.2695
264,12/22/2017,116.2125
265,12/21/2017,116.465
266,12/20/2017,116.65
267,12/19/2017,116.465
268,12/18/2017,115.945
269,12/15/2017,114.9
270,12/14/2017,114.94
271,12/13/2017,116.49
272,12/12/2017,115.795
273,12/11/2017,115.595
274,12/08/2017,116.075
275,12/07/2017,116.29124999999999
276,12/06/2017,116.605
277,12/05/2017,117.14500000000001
278,12/04/2017,117.875
279,12/01/2017,116.245
280,11/30/2017,117.55
281,11/29/2017,117.1375
282,11/28/2017,116.84
283,11/27/2017,116.04249999999999
284,11/24/2017,116.0925
285,11/22/2017,115.89500000000001
286,11/21/2017,115.5
287,11/20/2017,114.895
288,11/17/2017,114.01499999999999
289,11/16/2017,113.785
290,11/15/2017,113.67
291,11/14/2017,113.9925
292,11/13/2017,114.51249999999999
293,11/10/2017,114.71000000000001
294,11/09/2017,115.14500000000001
295,11/08/2017,115.995
296,11/07/2017,116.505
297,11/06/2017,116.545
298,11/03/2017,116.375
299,11/02/2017,115.865
300,11/01/2017,116.10499999999999
301,10/31/2017,116.56
302,10/30/2017,116.87
303,10/27/2017,118.555
304,10/26/2017,118.57
305,10/25/2017,117.32
306,10/24/2017,118.0
307,10/23/2017,117.32
308,10/20/2017,116.295
309,10/19/2017,112.72999999999999
310,10/18/2017,112.71
311,10/17/2017,113.155
312,10/16/2017,113.345
313,10/13/2017,113.55000000000001
314,10/12/2017,112.995
315,10/11/2017,112.13749999999999
316,10/10/2017,112.32249999999999
317,10/09/2017,112.4105
318,10/06/2017,113.41
319,10/05/2017,112.67
320,10/04/2017,112.435
321,10/03/2017,111.685
322,10/02/2017,109.79374999999999
323,09/29/2017,108.99000000000001
324,09/28/2017,108.315
325,09/27/2017,108.37
326,09/26/2017,108.935
327,09/25/2017,109.08
328,09/22/2017,108.825
329,09/21/2017,109.28
330,09/20/2017,108.72505
331,09/19/2017,107.57499999999999
332,09/18/2017,106.45
333,09/15/2017,106.27
334,09/14/2017,105.61005
335,09/13/2017,105.64500000000001
336,09/12/2017,106.15
337,09/11/2017,105.025
338,09/08/2017,102.775
339,09/07/2017,103.735
340,09/06/2017,103.87
341,09/05/2017,104.00999999999999
342,09/01/2017,104.50999999999999
343,08/31/2017,104.145
344,08/30/2017,103.88
345,08/29/2017,103.53505000000001
346,08/28/2017,103.965
347,08/25/2017,103.66
348,08/24/2017,104.085
349,08/23/2017,104.005
350,08/22/2017,103.5575
351,08/21/2017,102.125
352,08/18/2017,102.4
353,08/17/2017,103.33000000000001
354,08/16/2017,103.3075
355,08/15/2017,102.72999999999999
356,08/14/2017,102.0
357,08/11/2017,101.005
358,08/10/2017,102.16749999999999
359,08/09/2017,103.31
360,08/08/2017,103.81
361,08/07/2017,105.43
362,08/04/2017,104.80000000000001
363,08/03/2017,105.16
364,08/02/2017,105.81
365,08/01/2017,105.125
366,07/31/2017,105.72
367,07/28/2017,105.9925
368,07/27/2017,106.3375
369,07/26/2017,106.91499999999999
370,07/25/2017,106.695
371,07/24/2017,105.265
372,07/21/2017,106.825
373,07/20/2017,107.71000000000001
374,07/19/2017,113.17750000000001
375,07/18/2017,112.555
376,07/17/2017,112.9888
377,07/14/2017,112.72999999999999
378,07/13/2017,112.18
379,07/12/2017,111.72
380,07/11/2017,110.91505000000001
381,07/10/2017,111.065
382,07/07/2017,110.5375
383,07/06/2017,110.2175
384,07/05/2017,110.91
385,07/03/2017,110.655
386,06/30/2017,110.095
387,06/29/2017,110.285
388,06/28/2017,111.095
389,06/27/2017,110.85624999999999
390,06/26/2017,110.69
391,06/23/2017,110.67750000000001
392,06/22/2017,110.665
393,06/21/2017,110.84
394,06/20/2017,110.9225
395,06/19/2017,111.27
396,06/16/2017,111.28999999999999
397,06/15/2017,111.045
398,06/14/2017,111.37
399,06/13/2017,110.714
400,06/12/2017,110.265
401,06/09/2017,109.0
402,06/08/2017,107.32
403,06/07/2017,108.14
404,06/06/2017,108.105
405,06/05/2017,109.3425
406,06/02/2017,109.67
407,06/01/2017,108.43
408,05/31/2017,106.18
409,05/30/2017,106.44
410,05/26/2017,107.075
411,05/25/2017,107.03999999999999
412,05/24/2017,106.81
413,05/23/2017,106.5775
414,05/22/2017,106.6658
415,05/19/2017,106.12
416,05/18/2017,105.505
417,05/17/2017,106.24000000000001
418,05/16/2017,107.66
419,05/15/2017,107.7875
420,05/12/2017,107.145
421,05/11/2017,107.015
422,05/10/2017,108.07
423,05/09/2017,108.125
424,05/08/2017,109.055
425,05/05/2017,110.58500000000001
426,05/04/2017,109.755
427,05/03/2017,109.357
428,05/02/2017,111.045
429,05/01/2017,109.53
430,04/28/2017,110.43
431,04/27/2017,111.1435
432,04/26/2017,110.25
433,04/25/2017,109.62
434,04/24/2017,107.56
435,04/21/2017,106.55
436,04/20/2017,105.485
437,04/19/2017,105.235
438,04/18/2017,104.85
439,04/17/2017,104.88749999999999
440,04/13/2017,104.78999999999999
441,04/12/2017,105.01050000000001
442,04/11/2017,105.49000000000001
443,04/10/2017,105.83500000000001
444,04/07/2017,105.67500000000001
445,04/06/2017,105.425
446,04/05/2017,105.61
447,04/04/2017,104.91
448,04/03/2017,104.9
449,03/31/2017,104.72925000000001
450,03/30/2017,105.56
451,03/29/2017,105.2475
452,03/28/2017,104.435
453,03/27/2017,103.105
454,03/24/2017,104.215
455,03/23/2017,104.47999999999999
456,03/22/2017,103.52000000000001
457,03/21/2017,105.33500000000001
458,03/20/2017,104.03999999999999
459,03/17/2017,104.19
460,03/16/2017,103.83500000000001
461,03/15/2017,103.3
462,03/14/2017,101.96005
463,03/13/2017,102.16050000000001
464,03/10/2017,103.22999999999999
465,03/09/2017,103.71005
466,03/08/2017,106.91499999999999
467,03/07/2017,100.95750000000001
468,03/06/2017,101.46
469,03/03/2017,102.42500000000001
470,03/02/2017,102.8
471,03/01/2017,103.435
472,02/28/2017,102.36
473,02/27/2017,102.83000000000001
474,02/24/2017,102.64750000000001
475,02/23/2017,102.71000000000001
476,02/22/2017,102.83
477,02/21/2017,102.74
478,02/17/2017,101.555
479,02/16/2017,101.49
480,02/15/2017,101.29050000000001
481,02/14/2017,101.11
482,02/13/2017,100.945
483,02/10/2017,100.485
484,02/09/2017,100.13525000000001
485,02/08/2017,99.91999999999999
486,02/07/2017,100.29499999999999
487,02/06/2017,100.27
488,02/03/2017,100.785
489,02/02/2017,100.5608
490,02/01/2017,99.88
491,01/31/2017,100.575
492,01/30/2017,101.295
493,01/27/2017,101.67095
494,01/26/2017,101.38
495,01/25/2017,101.58
496,01/24/2017,101.495
497,01/23/2017,99.50550000000001
498,01/20/2017,98.845
499,01/19/2017,97.49000000000001
500,01/18/2017,96.255
501,01/17/2017,95.35
502,01/13/2017,96.63499999999999
503,01/12/2017,96.38749999999999
504,01/11/2017,96.125
505,01/10/2017,96.1575
506,01/09/2017,95.615
507,01/06/2017,95.715
508,01/05/2017,96.01
509,01/04/2017,96.57499999999999
510,01/03/2017,95.27
511,12/30/2016,94.97999999999999
512,12/29/2016,94.995
513,12/28/2016,95.53
514,12/27/2016,95.405
515,12/23/2016,94.42005
516,12/22/2016,95.46000000000001
517,12/21/2016,95.625
518,12/20/2016,95.98
519,12/19/2016,96.42
520,12/16/2016,96.24000000000001
521,12/15/2016,96.375
522,12/14/2016,96.895
523,12/13/2016,97.52000000000001
524,12/12/2016,98.805
525,12/09/2016,99.545
526,12/08/2016,98.775
527,12/07/2016,97.21
528,12/06/2016,95.94149999999999
529,12/05/2016,96.11
530,12/02/2016,94.825
531,12/01/2016,95.82499999999999
532,11/30/2016,97.25999999999999
533,11/29/2016,97.685
534,11/28/2016,97.36
535,11/25/2016,97.74
536,11/23/2016,97.025
537,11/22/2016,96.37
538,11/21/2016,95.82
539,11/18/2016,95.67500000000001
540,11/17/2016,96.4625
541,11/16/2016,96.21495
542,11/15/2016,96.025
543,11/14/2016,95.99
544,11/11/2016,96.38
545,11/10/2016,96.995
546,11/09/2016,93.4245
547,11/08/2016,94.345
548,11/07/2016,93.995
549,11/04/2016,92.6
550,11/03/2016,92.4
551,11/02/2016,93.18
552,11/01/2016,92.67
553,10/31/2016,93.125
554,10/28/2016,93.4
555,10/27/2016,93.185
556,10/26/2016,91.815
557,10/25/2016,90.85
558,10/24/2016,93.105
559,10/21/2016,91.535
560,10/20/2016,93.49000000000001
561,10/19/2016,92.67
562,10/18/2016,93.31
563,10/17/2016,92.56
564,10/14/2016,92.83
565,10/13/2016,91.33500000000001
566,10/12/2016,91.9925
567,10/11/2016,92.38
568,10/10/2016,94.10499999999999
569,10/07/2016,95.005
570,10/06/2016,101.78999999999999
571,10/05/2016,102.14
572,10/04/2016,102.94
573,10/03/2016,103.655
574,09/30/2016,103.25
575,09/29/2016,102.9675
576,09/28/2016,103.16
577,09/27/2016,102.0875
578,09/26/2016,102.65
579,09/23/2016,103.26995
580,09/22/2016,103.57
581,09/21/2016,101.9
582,09/20/2016,101.18
583,09/19/2016,101.03999999999999
584,09/16/2016,100.3
585,09/15/2016,100.98814999999999
586,09/14/2016,100.672
587,09/13/2016,101.265
588,09/12/2016,101.7
589,09/09/2016,102.67
590,09/08/2016,106.08
591,09/07/2016,107.105
592,09/06/2016,107.49000000000001
593,09/02/2016,106.695
594,09/01/2016,105.695
595,08/31/2016,106.255
596,08/30/2016,107.18440000000001
597,08/29/2016,106.9
598,08/26/2016,106.52995
599,08/25/2016,106.62
600,08/24/2016,106.56
601,08/23/2016,106.185
602,08/22/2016,104.64125
603,08/19/2016,104.03999999999999
604,08/18/2016,103.66
605,08/17/2016,103.465
606,08/16/2016,104.5025
607,08/15/2016,104.38499999999999
608,08/12/2016,104.28999999999999
609,08/11/2016,104.905
610,08/10/2016,104.58
611,08/09/2016,104.695
612,08/08/2016,104.375
613,08/05/2016,104.66749999999999
614,08/04/2016,104.335
615,08/03/2016,103.625
616,08/02/2016,104.115
617,08/01/2016,104.4
618,07/29/2016,104.4848
619,07/28/2016,105.57055
620,07/27/2016,106.315
621,07/26/2016,106.62445
622,07/25/2016,106.8725
623,07/22/2016,107.9475
624,07/21/2016,108.845
625,07/20/2016,109.31
626,07/19/2016,108.375
627,07/18/2016,109.055
628,07/15/2016,108.81
629,07/14/2016,109.16999999999999
630,07/13/2016,108.755
631,07/12/2016,108.405
632,07/11/2016,106.73
633,07/08/2016,105.29495
634,07/07/2016,103.1525
635,07/06/2016,102.3675
636,07/05/2016,102.86500000000001
637,07/01/2016,104.78
638,06/30/2016,103.07
639,06/29/2016,102.145
640,06/28/2016,99.49000000000001
641,06/27/2016,99.775
642,06/24/2016,105.15
643,06/23/2016,110.35
644,06/22/2016,108.03
645,06/21/2016,108.24000000000001
646,06/20/2016,109.025
647,06/17/2016,107.445
648,06/16/2016,106.035
649,06/15/2016,107.07
650,06/14/2016,107.14
651,06/13/2016,108.43
652,06/10/2016,109.315
653,06/09/2016,110.005
654,06/08/2016,109.385
655,06/07/2016,107.86495
656,06/06/2016,108.275
657,06/03/2016,107.515
658,06/02/2016,107.545
659,06/01/2016,107.35
660,05/31/2016,108.035
661,05/27/2016,108.005
662,05/26/2016,108.295
663,05/25/2016,108.215
664,05/24/2016,107.305
665,05/23/2016,106.315
666,05/20/2016,106.47749999999999
667,05/19/2016,105.805
668,05/18/2016,106.93
669,05/17/2016,107.47749999999999
670,05/16/2016,107.86500000000001
671,05/13/2016,107.27
672,05/12/2016,107.455
673,05/11/2016,108.28999999999999
674,05/10/2016,108.0425
675,05/09/2016,107.76
676,05/06/2016,107.745
677,05/05/2016,108.882
678,05/04/2016,108.68
679,05/03/2016,109.62
680,05/02/2016,110.14500000000001
681,04/29/2016,111.24000000000001
682,04/28/2016,112.465
683,04/27/2016,113.62
684,04/26/2016,113.46000000000001
685,04/25/2016,112.63499999999999
686,04/22/2016,112.08500000000001
687,04/21/2016,111.55
688,04/20/2016,116.275
689,04/19/2016,116.285
690,04/18/2016,115.285
691,04/15/2016,114.89500000000001
692,04/14/2016,114.16499999999999
693,04/13/2016,113.51505
694,04/12/2016,112.265
695,04/11/2016,112.215
696,04/08/2016,111.58494999999999
697,04/07/2016,110.955
698,04/06/2016,111.42
699,04/05/2016,111.4725
700,04/04/2016,112.43
701,04/01/2016,111.755
702,03/31/2016,111.606
703,03/30/2016,111.41499999999999
704,03/29/2016,109.6011
705,03/28/2016,109.175
706,03/24/2016,108.22
707,03/23/2016,108.905
708,03/22/2016,109.38
709,03/21/2016,109.405
710,03/18/2016,109.315
711,03/17/2016,108.305
712,03/16/2016,105.4
713,03/15/2016,104.285
714,03/14/2016,104.548
715,03/11/2016,104.505
716,03/10/2016,103.03
717,03/09/2016,102.04249999999999
718,03/08/2016,102.0
719,03/07/2016,102.545
720,03/04/2016,101.6225
721,03/03/2016,99.49000000000001
722,03/02/2016,99.08500000000001
723,03/01/2016,98.705
724,02/29/2016,97.667
725,02/26/2016,97.905
726,02/25/2016,95.81
727,02/24/2016,94.38
728,02/23/2016,95.68
729,02/22/2016,96.93
730,02/19/2016,94.71000000000001
731,02/18/2016,94.86
732,02/17/2016,94.23
733,02/16/2016,92.77250000000001
734,02/12/2016,90.8775
735,02/11/2016,89.5976
736,02/10/2016,92.125
737,02/09/2016,90.025
738,02/08/2016,90.57
739,02/05/2016,94.27
740,02/04/2016,95.4575
741,02/03/2016,93.51
742,02/02/2016,93.815
743,02/01/2016,94.575
744,01/29/2016,93.71000000000001
745,01/28/2016,93.00800000000001
746,01/27/2016,93.07
747,01/26/2016,92.2
748,01/25/2016,92.125
749,01/22/2016,93.57
750,01/21/2016,92.64
751,01/20/2016,92.35499999999999
752,01/19/2016,91.575
753,01/15/2016,91.345
754,01/14/2016,92.86
755,01/13/2016,94.625
756,01/12/2016,94.67500000000001
757,01/11/2016,94.725
758,01/08/2016,95.405
759,01/07/2016,95.91
760,01/06/2016,96.565
761,01/05/2016,98.3925
762,01/04/2016,97.025
763,12/31/2015,99.39500000000001
764,12/30/2015,100.21
765,12/29/2015,100.4425
766,12/28/2015,99.875
767,12/24/2015,100.36500000000001
768,12/23/2015,99.88
769,12/22/2015,98.36
770,12/21/2015,96.9305
771,12/18/2015,97.225
772,12/17/2015,99.41499999999999
773,12/16/2015,99.42750000000001
774,12/15/2015,98.945
775,12/14/2015,97.91999999999999
776,12/11/2015,99.185
777,12/10/2015,101.12504999999999
778,12/09/2015,102.08500000000001
779,12/08/2015,103.595
780,12/07/2015,105.0675
781,12/04/2015,105.37
782,12/03/2015,104.955
783,12/02/2015,105.91
784,12/01/2015,106.345
785,11/30/2015,105.805
786,11/27/2015,106.11000000000001
787,11/25/2015,106.07
788,11/24/2015,105.285
789,11/23/2015,105.16
790,11/20/2015,104.195
791,11/19/2015,103.72694999999999
792,11/18/2015,103.0325
793,11/17/2015,102.25534999999999
794,11/16/2015,101.17500000000001
795,11/13/2015,100.17
796,11/12/2015,100.1625
797,11/11/2015,101.412
798,11/10/2015,101.115
799,11/09/2015,101.75999999999999
800,11/06/2015,102.545
801,11/05/2015,103.2225
802,11/04/2015,104.255
803,11/03/2015,104.225
804,11/02/2015,104.025
805,10/30/2015,104.23
806,10/29/2015,104.125
807,10/28/2015,103.53
808,10/27/2015,103.40995
809,10/26/2015,103.95
810,10/23/2015,104.305
811,10/22/2015,102.67115
812,10/21/2015,100.92495
813,10/20/2015,101.575
814,10/19/2015,100.34
815,10/16/2015,101.625
816,10/15/2015,97.84505
817,10/14/2015,97.495
818,10/13/2015,96.96000000000001
819,10/12/2015,96.86
820,10/09/2015,95.7335
821,10/08/2015,94.89
822,10/07/2015,93.41
823,10/06/2015,94.2225
824,10/05/2015,94.025
825,10/02/2015,90.535
826,10/01/2015,86.555
827,09/30/2015,87.58500000000001
828,09/29/2015,85.41
829,09/28/2015,86.11500000000001
830,09/25/2015,88.43
831,09/24/2015,88.32499999999999
832,09/23/2015,90.9845
833,09/22/2015,91.555
834,09/21/2015,93.675
835,09/18/2015,93.36
836,09/17/2015,95.075
837,09/16/2015,94.84
838,09/15/2015,94.5
839,09/14/2015,95.255
840,09/11/2015,96.1
841,09/10/2015,96.47999999999999
842,09/09/2015,96.925
843,09/08/2015,95.465
844,09/04/2015,93.065
845,09/03/2015,94.225
846,09/02/2015,92.575
847,09/01/2015,92.22
848,08/31/2015,95.71000000000001
849,08/28/2015,95.6135
850,08/27/2015,94.56
851,08/26/2015,92.11
852,08/25/2015,92.945
853,08/24/2015,93.475
854,08/21/2015,98.215
855,08/20/2015,101.135
856,08/19/2015,103.12
857,08/18/2015,105.035
858,08/17/2015,104.47
859,08/14/2015,104.095
860,08/13/2015,103.93
861,08/12/2015,103.22999999999999
862,08/11/2015,104.60499999999999
863,08/10/2015,105.505
864,08/07/2015,104.4425
865,08/06/2015,105.7225
866,08/05/2015,107.17505
867,08/04/2015,107.33
868,08/03/2015,107.88999999999999
869,07/31/2015,108.775
870,07/30/2015,108.16499999999999
871,07/29/2015,107.91499999999999
872,07/28/2015,104.91499999999999
873,07/27/2015,102.41
874,07/24/2015,103.895
875,07/23/2015,106.645
876,07/22/2015,108.05000000000001
877,07/21/2015,109.705
878,07/20/2015,111.31
879,07/17/2015,112.6
880,07/16/2015,114.9025
881,07/15/2015,117.39
882,07/14/2015,117.175
883,07/13/2015,116.285
884,07/10/2015,114.285
885,07/09/2015,113.74
886,07/08/2015,113.7525
887,07/07/2015,114.345
888,07/06/2015,115.095
889,07/02/2015,116.28
890,07/01/2015,115.89250000000001
891,06/30/2015,115.2
892,06/29/2015,116.095
893,06/26/2015,117.91499999999999
894,06/25/2015,118.13
895,06/24/2015,118.195
896,06/23/2015,118.225
897,06/22/2015,118.2
898,06/19/2015,117.41999999999999
899,06/18/2015,117.515
900,06/17/2015,115.985
901,06/16/2015,115.595
902,06/15/2015,115.545
903,06/12/2015,116.5325
904,06/11/2015,116.47749999999999
905,06/10/2015,115.75
906,06/09/2015,114.4725
907,06/08/2015,113.94375
908,06/05/2015,113.9075
909,06/04/2015,114.6225
910,06/03/2015,114.53110000000001
911,06/02/2015,114.22999999999999
912,06/01/2015,114.38499999999999
913,05/29/2015,114.59
914,05/28/2015,114.37
915,05/27/2015,114.2175
916,05/26/2015,113.7325
917,05/22/2015,114.74
918,05/21/2015,114.61755
919,05/20/2015,114.7525
920,05/19/2015,115.32499999999999
921,05/18/2015,115.3
922,05/15/2015,114.905
923,05/14/2015,113.75
924,05/13/2015,112.075
925,05/12/2015,112.935
926,05/11/2015,114.3475
927,05/08/2015,114.33000000000001
928,05/07/2015,111.61
929,05/06/2015,110.86500000000001
930,05/05/2015,112.0975
931,05/04/2015,112.6425
932,05/01/2015,111.4925
933,04/30/2015,110.7975
934,04/29/2015,110.36500000000001
935,04/28/2015,109.985
936,04/27/2015,111.08375000000001
937,04/24/2015,112.3275
938,04/23/2015,113.0575
939,04/22/2015,113.4725
940,04/21/2015,113.4625
941,04/20/2015,113.60249999999999
942,04/17/2015,113.09
943,04/16/2015,114.91875
944,04/15/2015,113.9025
945,04/14/2015,114.1595
946,04/13/2015,114.79249999999999
947,04/10/2015,114.23315
948,04/09/2015,113.48375
949,04/08/2015,112.745
950,04/07/2015,112.435
951,04/06/2015,111.7425
952,04/02/2015,112.05000000000001
953,04/01/2015,112.0775
954,03/31/2015,112.14
955,03/30/2015,112.30000000000001
956,03/27/2015,111.2325
957,03/26/2015,110.6375
958,03/25/2015,112.3275
959,03/24/2015,113.34
960,03/23/2015,114.06
961,03/20/2015,114.0075
962,03/19/2015,113.706
963,03/18/2015,113.78999999999999
964,03/17/2015,113.91749999999999
965,03/16/2015,114.57
966,03/13/2015,113.95625000000001
967,03/12/2015,113.73500000000001
968,03/11/2015,113.28999999999999
969,03/10/2015,114.43875
970,03/09/2015,116.31
971,03/06/2015,116.605
972,03/05/2015,117.59755000000001
973,03/04/2015,117.5275
974,03/03/2015,117.7025
975,03/02/2015,118.3275
976,02/27/2015,117.765
977,02/26/2015,117.8675
978,02/25/2015,118.145
979,02/24/2015,118.17625
980,02/23/2015,117.97945
981,02/20/2015,117.32499999999999
982,02/19/2015,117.78875
983,02/18/2015,117.4025
984,02/17/2015,117.6225
985,02/13/2015,117.4875
986,02/12/2015,115.67625000000001
987,02/11/2015,114.0275
988,02/10/2015,113.8375
989,02/09/2015,114.26
990,02/06/2015,115.2775
991,02/05/2015,114.765
992,02/04/2015,113.4875
993,02/03/2015,112.89795000000001
994,02/02/2015,111.03
995,01/30/2015,112.2
996,01/29/2015,111.595
997,01/28/2015,112.23750000000001
998,01/27/2015,113.07124999999999
999,01/26/2015,113.34
1000,01/23/2015,114.6925
1001,01/22/2015,114.5675
1002,01/21/2015,113.95750000000001
1003,01/20/2015,114.53999999999999
1004,01/16/2015,113.9901
1005,01/15/2015,114.6875
1006,01/14/2015,112.3925
1007,01/13/2015,113.67750000000001
1008,01/12/2015,113.22
